Data type: dB/dt; UNIT: nT/s
Number of stations: 131
Stations (m): -200.0 -190.0 -180.0 -170.0 -160.0 -150.0 -140.0 -130.0 -120.0 -110.0 -100.0 -90.0 -80.0 -70.0 -60.0 -50.0 -40.0 -30.0 -20.0 -10.0 0.0 10.0 20.0 30.0 40.0 50.0 60.0 70.0 80.0 90.0 100.0 110.0 120.0 130.0 140.0 150.0 160.0 170.0 180.0 190.0 200.0 210.0 220.0 230.0 240.0 250.0 260.0 270.0 280.0 290.0 300.0 310.0 320.0 330.0 340.0 350.0 360.0 370.0 380.0 390.0 400.0 410.0 420.0 430.0 440.0 450.0 460.0 470.0 480.0 490.0 500.0 510.0 520.0 530.0 540.0 550.0 560.0 570.0 580.0 590.0 600.0 610.0 620.0 630.0 640.0 650.0 660.0 670.0 680.0 690.0 700.0 710.0 720.0 730.0 740.0 750.0 760.0 770.0 780.0 790.0 800.0 810.0 820.0 830.0 840.0 850.0 860.0 870.0 880.0 890.0 900.0 910.0 920.0 930.0 940.0 950.0 960.0 970.0 980.0 990.0 1000.0 1010.0 1020.0 1030.0 1040.0 1050.0 1060.0 1070.0 1080.0 1090.0 1100.0
Channel times (ms):
   1    -1.9500 
   2    -1.8500 
   3    -1.7500 
   4    -1.6500 
   5    -1.5500 
   6    -1.4495 
   7    -1.3500 
   8    -1.2500 
   9    -1.1500 
   10   -1.0500 
   11   -0.9500 
   12   -0.8500 
   13   -0.7500 
   14   -0.6500 
   15   -0.5500 
   16   -0.4500 
   17   -0.3500 
   18   -0.2500 
   19   -0.1500 
   20   -0.0500 
   21    0.0255 
   22    0.0550 
   23    0.0700 
   24    0.0950 
   25    0.1300 
   26    0.1750 
   27    0.2350 
   28    0.3150 
   29    0.4200 
   30    0.5600 
   31    0.7450 
   32    0.9900 
   33    1.3150 
   34    1.7450 
   35    2.3150 
   36    3.0750 
   37    4.0850 
   38    5.4250 
   39    7.2050 
   40    9.5700 
   41    12.6600
   42    22.7300
   43    39.3950
   44    48.1150
   45    48.5255
   46    48.5550
   47    48.5700
   48    48.5950
   49    48.6300
   50    48.6750
   51    48.7350
   52    48.8150
   53    48.9200
   54    49.0600
   55    49.2450
   56    49.4900
   57    49.8150
   58    50.2450
   59    50.8150
   60    51.5750
   61    52.5850
   62    53.9250
   63    55.7050
   64    58.0700
   65    61.1600
   66    71.2300
   67    87.8950
   68    97.1150
EM data:
Station Component      CH1            CH2            CH3            CH4            CH5            CH6            CH7            CH8            CH9           CH10           CH11           CH12           CH13           CH14           CH15           CH16           CH17           CH18           CH19           CH20           CH21           CH22           CH23           CH24           CH25           CH26           CH27           CH28           CH29           CH30           CH31           CH32           CH33           CH34           CH35           CH36           CH37           CH38           CH39           CH40           CH41           CH42           CH43           CH44           CH45           CH46           CH47           CH48           CH49           CH50           CH51           CH52           CH53           CH54           CH55           CH56           CH57           CH58           CH59           CH60           CH61           CH62           CH63           CH64           CH65           CH66           CH67           CH68      
 -200.0    X      1.29610E-15    1.17211E-15    1.02953E-15    9.60870E-16    9.10383E-16    7.99564E+02    5.36335E+02    3.52079E+02    2.10916E+02    1.11939E+02    3.86504E+01   -1.39622E+01   -5.70037E+01   -8.72569E+01   -1.12460E+02   -1.30485E+02   -1.45754E+02   -1.56743E+02   -1.66764E+02   -1.73601E+02   -1.06569E+03   -9.66292E+02   -9.20891E+02   -8.54248E+02   -7.65236E+02   -6.70758E+02   -5.62439E+02   -4.44968E+02   -3.33610E+02   -2.29988E+02   -1.45241E+02   -8.16575E+01   -4.15202E+01   -1.83607E+01   -7.00401E+00   -2.29056E+00   -6.44754E-01   -1.42510E-01   -2.42701E-02   -2.95062E-03   -2.38207E-04   -1.38796E-07   -1.00068E-12   -4.99923E-15    1.30296E+03    1.10957E+03    1.02429E+03    9.00135E+02    7.34692E+02    5.61685E+02    3.68013E+02    1.67064E+02   -1.19753E+01   -1.59252E+02   -2.51328E+02   -2.83731E+02   -2.59794E+02   -1.98856E+02   -1.26130E+02   -6.42537E+01   -2.50644E+01   -6.95632E+00   -1.26061E+00   -1.32246E-01   -7.38116E-03   -1.08489E-06   -3.90725E-12   -3.12778E-15  
 -200.0    Y      3.87741E-17    9.04729E-17    0.00000E+00    5.81611E-17    9.04729E-17   -1.11113E+02   -7.35235E+01   -4.75862E+01   -2.79853E+01   -1.44247E+01   -4.51071E+00    2.51928E+00    8.20273E+00    1.21518E+01    1.54053E+01    1.77073E+01    1.96371E+01    2.10119E+01    2.22531E+01    2.30919E+01    1.47454E+02    1.33083E+02    1.26545E+02    1.16980E+02    1.04262E+02    9.08380E+01    7.55550E+01    5.91353E+01    4.37532E+01    2.96520E+01    1.83373E+01    1.00442E+01    4.95563E+00    2.11543E+00    7.75308E-01    2.42895E-01    6.54243E-02    1.38071E-02    2.24359E-03    2.60791E-04    2.03867E-05    1.16278E-08    8.37456E-14    4.23284E-16   -1.81771E+02   -1.54059E+02   -1.41892E+02   -1.24231E+02   -1.00803E+02   -7.64379E+01   -4.93499E+01   -2.15100E+01    2.98155E+00    2.27604E+01    3.47224E+01    3.84598E+01    3.46999E+01    2.62081E+01    1.64186E+01    8.26607E+00    3.19689E+00    8.73657E-01    1.56022E-01    1.60209E-02    8.61649E-04    1.01855E-07    3.27434E-13    2.81112E-16  
 -200.0    Z      1.96455E-15    1.75776E-15    1.49926E-15    1.30539E-15    1.15030E-15    9.67699E+02    7.51141E+02    5.94931E+02    4.72252E+02    3.84110E+02    3.17275E+02    2.68161E+02    2.27061E+02    1.97522E+02    1.72381E+02    1.54021E+02    1.38153E+02    1.26506E+02    1.15677E+02    1.08153E+02   -9.34471E+02   -8.55897E+02   -8.19355E+02   -7.65173E+02   -6.91989E+02   -6.13406E+02   -5.22134E+02   -4.21475E+02   -3.23997E+02   -2.30749E+02   -1.51678E+02   -8.96239E+01   -4.82396E+01   -2.27800E+01   -9.34496E+00   -3.29527E+00   -9.98044E-01   -2.36749E-01   -4.29623E-02   -5.50716E-03   -4.59916E-04   -2.73547E-07   -1.97393E-12   -9.67898E-15    1.52173E+03    1.35357E+03    1.27770E+03    1.16585E+03    1.01398E+03    8.51852E+02    6.65541E+02    4.64839E+02    2.75342E+02    1.04058E+02   -2.52255E+01   -1.06285E+02   -1.33102E+02   -1.19943E+02   -8.43433E+01   -4.63698E+01   -1.99762E+01   -5.67785E+00   -1.09760E+00   -1.25374E-01   -7.93553E-03   -1.84522E-06   -7.69829E-12   -5.63517E-15  
 -190.0    X      1.27955E-15    1.17615E-15    1.02751E-15    9.24116E-16    8.53030E-16    1.02063E+03    7.58170E+02    5.74593E+02    4.34029E+02    3.35525E+02    2.62625E+02    2.10319E+02    1.67548E+02    1.37500E+02    1.12479E+02    9.45925E+01    7.94472E+01    6.85516E+01    5.86193E+01    5.18453E+01   -1.06111E+03   -9.61886E+02   -9.16592E+02   -8.50126E+02   -7.61379E+02   -6.67211E+02   -5.59281E+02   -4.42276E+02   -3.31413E+02   -2.28315E+02   -1.44064E+02   -8.09141E+01   -4.10970E+01   -1.81521E+01   -6.91599E+00   -2.25915E+00   -6.35246E-01   -1.40277E-01   -2.38711E-02   -2.90030E-03   -2.34053E-04   -1.36344E-07   -9.82919E-13   -4.83141E-15    1.62630E+03    1.42364E+03    1.33386E+03    1.20279E+03    1.02706E+03    8.41950E+02    6.32556E+02    4.11734E+02    2.09276E+02    3.38734E+01   -8.96190E+01   -1.56923E+02   -1.66998E+02   -1.38208E+02   -9.16819E+01   -4.80786E+01   -1.91876E+01   -5.40630E+00   -9.96750E-01   -1.06912E-01   -6.16214E-03   -1.02155E-06   -3.83823E-12   -3.10516E-15  
 -190.0    Y      1.22785E-16    1.68021E-16    1.16322E-16    8.40105E-17    1.68021E-16    1.81534E+02    2.03379E+02    2.18543E+02    2.30065E+02    2.38082E+02    2.43978E+02    2.48184E+02    2.51604E+02    2.53994E+02    2.55975E+02    2.57384E+02    2.58571E+02    2.59421E+02    2.60193E+02    2.60716E+02    8.68444E+01    7.85684E+01    7.47851E+01    6.92382E+01    6.18471E+01    5.40288E+01    4.51040E+01    3.54802E+01    2.64194E+01    1.80564E+01    1.12837E+01    6.26061E+00    3.13332E+00    1.35858E+00    5.05942E-01    1.60897E-01    4.38926E-02    9.35123E-03    1.52671E-03    1.77554E-04    1.38608E-05    7.89240E-09    5.67855E-14    2.55263E-16    2.54685E+02    2.60035E+02    2.61884E+02    2.64143E+02    2.65880E+02    2.66115E+02    2.63856E+02    2.57417E+02    2.45189E+02    2.25142E+02    1.97129E+02    1.60732E+02    1.21190E+02    8.11133E+01    4.68917E+01    2.23121E+01    8.19476E+00    2.17994E+00    3.74710E-01    3.64818E-02    1.79800E-03    1.18495E-07    2.21927E-13    8.07794E-17  
 -190.0    Z      2.21012E-15    2.02918E-15    1.68021E-15    1.49926E-15    1.37002E-15    1.11521E+03    8.79622E+02    7.09810E+02    5.76593E+02    4.80984E+02    4.08564E+02    3.55402E+02    3.10957E+02    2.79046E+02    2.51912E+02    2.32114E+02    2.15020E+02    2.02482E+02    1.90837E+02    1.82752E+02   -1.01386E+03   -9.28392E+02   -8.88625E+02   -8.29656E+02   -7.50013E+02   -6.64517E+02   -5.65264E+02   -4.55883E+02   -3.50059E+02   -2.48953E+02   -1.63355E+02   -9.63104E+01   -5.17061E+01   -2.43444E+01   -9.95372E+00   -3.49805E+00   -1.05605E+00   -2.49758E-01   -4.52055E-02   -5.78269E-03   -4.82308E-04   -2.86648E-07   -2.06824E-12   -1.00758E-14    1.74684E+03    1.56125E+03    1.47739E+03    1.35367E+03    1.18544E+03    1.00556E+03    7.98406E+02    5.74532E+02    3.61982E+02    1.68052E+02    1.89507E+01   -7.87145E+01   -1.17307E+02   -1.12130E+02   -8.10812E+01   -4.53004E+01   -1.98261E+01   -5.65182E+00   -1.10065E+00   -1.26772E-01   -8.10418E-03   -1.92581E-06   -8.06690E-12   -5.76441E-15  
 -180.0    X      2.28767E-15    2.13904E-15    1.94517E-15    1.87408E-15    1.76422E-15    1.00424E+03    6.26276E+02    3.62596E+02    1.61347E+02    2.07633E+01   -8.29752E+01   -1.57205E+02   -2.17746E+02   -2.60175E+02   -2.95426E+02   -3.20570E+02   -3.41817E+02   -3.57072E+02   -3.70952E+02   -3.80401E+02   -1.51738E+03   -1.37441E+03   -1.30912E+03   -1.21331E+03   -1.08544E+03   -9.49904E+02   -7.94799E+02   -6.27028E+02   -4.68514E+02   -3.21615E+02   -2.02082E+02   -1.12933E+02   -5.70441E+01   -2.50418E+01   -9.47898E+00   -3.07633E+00   -8.59831E-01   -1.88839E-01   -3.19900E-02   -3.87289E-03   -3.11839E-04   -1.81406E-07   -1.30785E-12   -6.48012E-15    1.66055E+03    1.38883E+03    1.26934E+03    1.09567E+03    8.65145E+02    6.25245E+02    3.58545E+02    8.47767E+01   -1.54740E+02   -3.45303E+02   -4.54880E+02   -4.77644E+02   -4.21762E+02   -3.15557E+02   -1.97154E+02   -9.93407E+01   -3.84908E+01   -1.05786E+01   -1.90117E+00   -1.97224E-01   -1.08178E-02   -1.46735E-06   -5.10758E-12   -4.60119E-15  
 -180.0    Y      1.64790E-16    1.90639E-16    2.39107E-16    2.50416E-16    2.03564E-16    1.14747E+02    1.47164E+02    1.69409E+02    1.86063E+02    1.97486E+02    2.05774E+02    2.11614E+02    2.16309E+02    2.19556E+02    2.22220E+02    2.24099E+02    2.25668E+02    2.26783E+02    2.27787E+02    2.28464E+02    1.25019E+02    1.12712E+02    1.07074E+02    9.88101E+01    8.78224E+01    7.62523E+01    6.31373E+01    4.91391E+01    3.61310E+01    2.43156E+01    1.49301E+01    8.11933E+00    3.97977E+00    1.68866E+00    6.15599E-01    1.92066E-01    5.16281E-02    1.09055E-02    1.77857E-03    2.07689E-04    1.62882E-05    9.30661E-09    6.69495E-14    3.36850E-16    1.51596E+02    1.66226E+02    1.72258E+02    1.80656E+02    1.90694E+02    1.99727E+02    2.07498E+02    2.11789E+02    2.09762E+02    1.99237E+02    1.79131E+02    1.49109E+02    1.14034E+02    7.71110E+01    4.48858E+01    2.14585E+01    7.92778E+00    2.10957E+00    3.63747E-01    3.55825E-02    1.76859E-03    1.25479E-07    2.61656E-13   -7.27014E-17  
 -180.0    Z      2.31352E-15    1.99040E-15    1.75776E-15    1.49926E-15    1.27955E-15    7.57871E+02    4.97485E+02    3.08862E+02    1.60570E+02    5.39538E+01   -2.69308E+01   -8.63904E+01   -1.36161E+02   -1.71935E+02   -2.02380E+02   -2.24610E+02   -2.43817E+02   -2.57909E+02   -2.71004E+02   -2.80097E+02   -1.12713E+03   -1.03369E+03   -9.89930E+02   -9.24839E+02   -8.36697E+02   -7.41892E+02   -6.31661E+02   -5.09998E+02   -3.92096E+02   -2.79229E+02   -1.83455E+02   -1.08265E+02   -5.81408E+01   -2.73558E+01   -1.11654E+01   -3.91330E+00   -1.17762E+00   -2.77535E-01   -5.00645E-02   -6.38591E-03   -5.31645E-04   -3.15622E-07   -2.27685E-12   -1.10765E-14    1.23446E+03    1.05146E+03    9.69069E+02    8.47828E+02    6.84583E+02    5.12178E+02    3.17259E+02    1.12594E+02   -7.21672E+01   -2.26485E+02   -3.24372E+02   -3.57999E+02   -3.28139E+02   -2.53745E+02   -1.63366E+02   -8.46850E+01   -3.45892E+01   -9.55343E+00   -1.77747E+00   -1.93626E-01   -1.14934E-02   -2.22626E-06   -8.88198E-12   -6.43650E-15  
 -170.0    X      2.71903E-15    2.45892E-15    2.35068E-15    2.13904E-15    1.96617E-15    1.48416E+03    9.14057E+02    5.18668E+02    2.18439E+02    9.78308E+00   -1.43414E+02   -2.52489E+02   -3.41017E+02   -4.02764E+02   -4.53826E+02   -4.90085E+02   -5.20589E+02   -5.42397E+02   -5.62157E+02   -5.75555E+02   -2.26056E+03   -2.04338E+03   -1.94452E+03   -1.79970E+03   -1.60683E+03   -1.40286E+03   -1.17005E+03   -9.19109E+02   -6.83071E+02   -4.65606E+02   -2.90016E+02   -1.60326E+02   -7.99887E+01   -3.46245E+01   -1.29085E+01   -4.12553E+00   -1.13636E+00   -2.46146E-01   -4.11928E-02   -4.93659E-03   -3.94869E-04   -2.28772E-07   -1.64799E-12   -7.83560E-15    2.46173E+03    2.05110E+03    1.87111E+03    1.60997E+03    1.26410E+03    9.05086E+02    5.07185E+02    1.00498E+02   -2.53077E+02   -5.31490E+02   -6.87896E+02   -7.14863E+02   -6.26538E+02   -4.65802E+02   -2.89416E+02   -1.45099E+02   -5.58860E+01   -1.53039E+01   -2.73525E+00   -2.81546E-01   -1.52428E-02   -1.92073E-06   -6.44130E-12   -5.23935E-15  
 -170.0    Y     -1.47018E-16   -1.58328E-16   -2.05180E-16   -1.72868E-16   -1.79330E-16   -3.30915E+02   -2.97326E+02   -2.76186E+02   -2.61544E+02   -2.52262E+02   -2.46030E+02   -2.41967E+02   -2.38942E+02   -2.37006E+02   -2.35535E+02   -2.34574E+02   -2.33830E+02   -2.33340E+02   -2.32931E+02   -2.32676E+02    1.10614E+02    9.67045E+01    9.05800E+01    8.18201E+01    7.05149E+01    5.90033E+01    4.64635E+01    3.37721E+01    2.27619E+01    1.36247E+01    7.19279E+00    3.19986E+00    1.21757E+00    3.68717E-01    8.37115E-02    1.22820E-02    2.44895E-04   -4.73217E-04   -1.45352E-04   -2.37626E-05   -2.24999E-06   -1.44294E-09   -1.12800E-14   -3.03730E-16   -5.02767E+02   -4.66473E+02   -4.50372E+02   -4.26897E+02   -3.95071E+02   -3.61095E+02   -3.21731E+02   -2.78415E+02   -2.35154E+02   -1.91606E+02   -1.50986E+02   -1.12489E+02   -7.94304E+01   -5.06212E+01   -2.83111E+01   -1.31705E+01   -4.79859E+00   -1.25002E+00   -2.11797E-01   -2.01840E-02   -9.58749E-04   -4.61994E-08   -4.05900E-14    4.84676E-17  
 -170.0    Z      2.25213E-15    1.95324E-15    1.67698E-15    1.40556E-15    1.10991E-15    1.27894E+03    1.00769E+03    8.10580E+02    6.55412E+02    5.43733E+02    4.58928E+02    3.96534E+02    3.44269E+02    3.06678E+02    2.74669E+02    2.51286E+02    2.31077E+02    2.16244E+02    2.02458E+02    1.92883E+02   -1.17839E+03   -1.08174E+03   -1.03628E+03   -9.68532E+02   -8.76636E+02   -7.77670E+02   -6.62493E+02   -5.35250E+02   -4.11818E+02   -2.93518E+02   -1.92998E+02   -1.13972E+02   -6.12253E+01   -2.88037E+01   -1.17489E+01   -4.11342E+00   -1.23621E+00   -2.90926E-01   -5.24081E-02   -6.67706E-03   -5.55475E-04   -3.29624E-07   -2.37710E-12   -1.11799E-14    2.00143E+03    1.79069E+03    1.69467E+03    1.55252E+03    1.35864E+03    1.15091E+03    9.11349E+02    6.52164E+02    4.05924E+02    1.81231E+02    8.75761E+00   -1.03398E+02   -1.46234E+02   -1.37551E+02   -9.87103E+01   -5.48827E+01   -2.41319E+01   -6.79543E+00   -1.31784E+00   -1.50961E-01   -9.57678E-03   -2.22656E-06   -9.27557E-12   -6.19416E-15  
 -160.0    X      3.52844E-15    3.29580E-15    3.07608E-15    2.89513E-15    2.85636E-15    1.67688E+03    9.83281E+02    5.04920E+02    1.43730E+02   -1.05957E+02   -2.88389E+02   -4.17697E+02   -5.22215E+02   -5.94834E+02   -6.54674E+02   -6.97024E+02   -7.32545E+02   -7.57865E+02   -7.80744E+02   -7.96219E+02   -2.71763E+03   -2.45240E+03   -2.33178E+03   -2.15528E+03   -1.92060E+03   -1.67296E+03   -1.39113E+03   -1.08853E+03   -8.05274E+02   -5.45832E+02   -3.37814E+02   -1.85388E+02   -9.17914E+01   -3.94207E+01   -1.45822E+01   -4.62710E+00   -1.26671E+00   -2.73002E-01   -4.55183E-02   -5.44072E-03   -4.34516E-04   -2.51504E-07   -1.81200E-12   -8.68540E-15    2.80759E+03    2.31230E+03    2.09570E+03    1.78195E+03    1.36769E+03    9.39351E+02    4.67181E+02   -1.15111E+01   -4.22311E+02   -7.38295E+02   -9.05101E+02   -9.15302E+02   -7.89786E+02   -5.80901E+02   -3.58191E+02   -1.78541E+02   -6.84172E+01   -1.86614E+01   -3.32006E+00   -3.39619E-01   -1.82045E-02   -2.17272E-06   -7.08237E-12   -6.13923E-15  
 -160.0    Y      7.88407E-16    8.36874E-16    8.01331E-16    7.62557E-16    7.85175E-16    2.87313E+02    2.30031E+02    1.91166E+02    1.62290E+02    1.42662E+02    1.28565E+02    1.18744E+02    1.10943E+02    1.05617E+02    1.01303E+02    9.83020E+01    9.58269E+01    9.40920E+01    9.25504E+01    9.15244E+01   -2.16154E+02   -1.93819E+02   -1.83756E+02   -1.69094E+02   -1.49703E+02   -1.29367E+02   -1.06401E+02   -8.20090E+01   -5.95055E+01   -3.92950E+01   -2.35206E+01   -1.23612E+01   -5.81241E+00   -2.34653E+00   -8.08708E-01   -2.37928E-01   -6.04184E-02   -1.21268E-02   -1.90769E-03   -2.18594E-04   -1.70437E-05   -9.73760E-09   -7.01892E-14   -3.25541E-16    4.50214E+02    4.02276E+02    3.81137E+02    3.50340E+02    3.09030E+02    2.65501E+02    2.16159E+02    1.63843E+02    1.15094E+02    7.13106E+01    3.76371E+01    1.41891E+01    1.81311E+00   -3.21618E+00   -3.62754E+00   -2.31617E+00   -1.04152E+00   -3.03531E-01   -5.86588E-02   -6.63991E-03   -4.07282E-04   -7.31982E-08   -2.75235E-13   -7.14090E-16  
 -160.0    Z      2.32645E-15    2.09380E-15    1.78361E-15    1.44757E-15    1.13737E-15    1.10867E+03    7.88064E+02    5.54866E+02    3.71525E+02    2.39777E+02    1.39893E+02    6.65256E+01    5.17090E+00   -3.88814E+01   -7.63297E+01   -1.03639E+02   -1.27201E+02   -1.44466E+02   -1.60484E+02   -1.71591E+02   -1.38855E+03   -1.27501E+03   -1.22136E+03   -1.14125E+03   -1.03247E+03   -9.15270E+02   -7.78912E+02   -6.28397E+02   -4.82579E+02   -3.43076E+02   -2.24839E+02   -1.32199E+02   -7.06428E+01   -3.30228E+01   -1.33723E+01   -4.64643E+00   -1.38628E+00   -3.24020E-01   -5.80243E-02   -7.35726E-03   -6.10236E-04   -3.61473E-07   -2.60799E-12   -1.28375E-14    1.77470E+03    1.54425E+03    1.43944E+03    1.28453E+03    1.07469E+03    8.51811E+02    5.98081E+02    3.29010E+02    8.19002E+01   -1.31027E+02   -2.76428E+02   -3.44765E+02   -3.33737E+02   -2.66237E+02   -1.74616E+02   -9.16012E+01   -3.80678E+01   -1.04838E+01   -1.96167E+00   -2.15098E-01   -1.28720E-02   -2.54077E-06   -1.01725E-11   -6.95349E-15  
 -150.0    X      2.89513E-15    2.64956E-15    2.45569E-15    2.19720E-15    2.11965E-15    2.29652E+03    1.56229E+03    1.05575E+03    6.73414E+02    4.09211E+02    2.16232E+02    7.94799E+01   -3.10327E+01   -1.07805E+02   -1.71059E+02   -2.15820E+02   -2.53359E+02   -2.80116E+02   -3.04291E+02   -3.20641E+02   -2.87543E+03   -2.59526E+03   -2.46765E+03   -2.28082E+03   -2.03231E+03   -1.77004E+03   -1.47159E+03   -1.15123E+03   -8.51465E+02   -5.76999E+02   -3.57019E+02   -1.95880E+02   -9.69632E+01   -4.16310E+01   -1.53954E+01   -4.88369E+00   -1.33660E+00   -2.88011E-01   -4.80170E-02   -5.73939E-03   -4.58378E-04   -2.65321E-07   -1.91171E-12   -9.19350E-15    3.73437E+03    3.18848E+03    2.94830E+03    2.59924E+03    2.13539E+03    1.65220E+03    1.11392E+03    5.58974E+02    6.78263E+01   -3.33666E+02   -5.84444E+02   -6.77011E+02   -6.23223E+02   -4.76344E+02   -3.00728E+02   -1.52284E+02   -5.92640E+01   -1.62580E+01   -2.92163E+00   -3.02932E-01   -1.65814E-02   -2.18524E-06   -7.47076E-12   -5.98413E-15  
