Data type: dB/dt; UNIT: nT/s
Number of stations: 131
Stations (m): -200.0 -190.0 -180.0 -170.0 -160.0 -150.0 -140.0 -130.0 -120.0 -110.0 -100.0 -90.0 -80.0 -70.0 -60.0 -50.0 -40.0 -30.0 -20.0 -10.0 0.0 10.0 20.0 30.0 40.0 50.0 60.0 70.0 80.0 90.0 100.0 110.0 120.0 130.0 140.0 150.0 160.0 170.0 180.0 190.0 200.0 210.0 220.0 230.0 240.0 250.0 260.0 270.0 280.0 290.0 300.0 310.0 320.0 330.0 340.0 350.0 360.0 370.0 380.0 390.0 400.0 410.0 420.0 430.0 440.0 450.0 460.0 470.0 480.0 490.0 500.0 510.0 520.0 530.0 540.0 550.0 560.0 570.0 580.0 590.0 600.0 610.0 620.0 630.0 640.0 650.0 660.0 670.0 680.0 690.0 700.0 710.0 720.0 730.0 740.0 750.0 760.0 770.0 780.0 790.0 800.0 810.0 820.0 830.0 840.0 850.0 860.0 870.0 880.0 890.0 900.0 910.0 920.0 930.0 940.0 950.0 960.0 970.0 980.0 990.0 1000.0 1010.0 1020.0 1030.0 1040.0 1050.0 1060.0 1070.0 1080.0 1090.0 1100.0
Channel times (ms):
   1    -1.9500 
   2    -1.8500 
   3    -1.7500 
   4    -1.6500 
   5    -1.5500 
   6    -1.4495 
   7    -1.3500 
   8    -1.2500 
   9    -1.1500 
   10   -1.0500 
   11   -0.9500 
   12   -0.8500 
   13   -0.7500 
   14   -0.6500 
   15   -0.5500 
   16   -0.4500 
   17   -0.3500 
   18   -0.2500 
   19   -0.1500 
   20   -0.0500 
   21    0.0255 
   22    0.0550 
   23    0.0700 
   24    0.0950 
   25    0.1300 
   26    0.1750 
   27    0.2350 
   28    0.3150 
   29    0.4200 
   30    0.5600 
   31    0.7450 
   32    0.9900 
   33    1.3150 
   34    1.7450 
   35    2.3150 
   36    3.0750 
   37    4.0850 
   38    5.4250 
   39    7.2050 
   40    9.5700 
   41    12.6600
   42    22.7300
   43    39.3950
   44    48.1150
   45    48.5255
   46    48.5550
   47    48.5700
   48    48.5950
   49    48.6300
   50    48.6750
   51    48.7350
   52    48.8150
   53    48.9200
   54    49.0600
   55    49.2450
   56    49.4900
   57    49.8150
   58    50.2450
   59    50.8150
   60    51.5750
   61    52.5850
   62    53.9250
   63    55.7050
   64    58.0700
   65    61.1600
   66    71.2300
   67    87.8950
   68    97.1150
EM data:
Station Component      CH1            CH2            CH3            CH4            CH5            CH6            CH7            CH8            CH9           CH10           CH11           CH12           CH13           CH14           CH15           CH16           CH17           CH18           CH19           CH20           CH21           CH22           CH23           CH24           CH25           CH26           CH27           CH28           CH29           CH30           CH31           CH32           CH33           CH34           CH35           CH36           CH37           CH38           CH39           CH40           CH41           CH42           CH43           CH44           CH45           CH46           CH47           CH48           CH49           CH50           CH51           CH52           CH53           CH54           CH55           CH56           CH57           CH58           CH59           CH60           CH61           CH62           CH63           CH64           CH65           CH66           CH67           CH68      
 -200.0    X      5.34452E-02    5.28239E-02    5.21495E-02    5.15446E-02    5.09472E-02    9.81982E+02    9.32463E+02    8.91974E+02    8.53175E+02    8.18494E+02    7.85768E+02    7.55893E+02    7.24973E+02    6.97615E+02    6.69143E+02    6.43851E+02    6.17452E+02    5.94117E+02    5.68057E+02    5.46502E+02   -4.68256E+02   -4.55603E+02   -4.50373E+02   -4.43031E+02   -4.33499E+02   -4.23331E+02   -4.11107E+02   -3.96372E+02   -3.79775E+02   -3.59877E+02   -3.36644E+02   -3.08925E+02   -2.77588E+02   -2.41217E+02   -2.00836E+02   -1.58198E+02   -1.17149E+02   -7.91187E+01   -4.81706E+01   -2.61102E+01   -1.24953E+01   -1.78490E+00   -1.54049E-01   -5.87686E-02    1.46219E+03    1.38985E+03    1.35654E+03    1.30655E+03    1.23503E+03    1.15341E+03    1.05046E+03    9.23884E+02    7.80093E+02    6.13645E+02    4.35355E+02    2.48445E+02    7.95293E+01   -6.24853E+01   -1.55197E+02   -1.90480E+02   -1.75070E+02   -1.30237E+02   -8.08011E+01   -4.26259E+01   -1.96718E+01   -2.42840E+00   -1.92905E-01   -6.01137E-02  
 -200.0    Y     -5.36336E-03   -5.29905E-03   -5.22927E-03   -5.16671E-03   -5.10495E-03   -1.37620E+02   -1.30318E+02   -1.24443E+02   -1.18836E+02   -1.13835E+02   -1.09125E+02   -1.04833E+02   -1.00399E+02   -9.64822E+01   -9.24123E+01   -8.88028E+01   -8.50407E+01   -8.17204E+01   -7.80181E+01   -7.49603E+01    6.74744E+01    6.54927E+01    6.46865E+01    6.35667E+01    6.21295E+01    6.06095E+01    5.87906E+01    5.66021E+01    5.41392E+01    5.11898E+01    4.77527E+01    4.36639E+01    3.90590E+01    3.37410E+01    2.78758E+01    2.17369E+01    1.58928E+01    1.05563E+01    6.29369E+00    3.32425E+00    1.54249E+00    2.03443E-01    1.60308E-02    5.92743E-03   -2.05217E+02   -1.94734E+02   -1.89951E+02   -1.82804E+02   -1.72628E+02   -1.61053E+02   -1.46484E+02   -1.28602E+02   -1.08319E+02   -8.48782E+01   -5.98213E+01   -3.36272E+01   -1.00514E+01    9.63576E+00    2.23027E+01    2.68556E+01    2.43388E+01    1.78041E+01    1.08141E+01    5.55060E+00    2.47812E+00    2.80159E-01    2.01892E-02    6.04871E-03  
 -200.0    Z      8.41920E-02    8.32617E-02    8.22513E-02    8.13443E-02    8.04480E-02    1.11206E+03    1.07269E+03    1.04114E+03    1.01059E+03    9.82963E+02    9.56661E+02    9.32480E+02    9.07305E+02    8.84922E+02    8.61527E+02    8.40665E+02    8.18813E+02    7.99434E+02    7.77724E+02    7.59713E+02   -3.79814E+02   -3.69198E+02   -3.65018E+02   -3.59353E+02   -3.52275E+02   -3.44927E+02   -3.36183E+02   -3.25584E+02   -3.13471E+02   -2.98693E+02   -2.81138E+02   -2.59871E+02   -2.35501E+02   -2.06862E+02   -1.74658E+02   -1.40135E+02   -1.06256E+02   -7.40582E+01   -4.69446E+01   -2.67516E+01   -1.35876E+01   -2.25576E+00   -2.28733E-01   -9.18444E-02    1.64854E+03    1.57537E+03    1.54164E+03    1.49105E+03    1.41843E+03    1.33520E+03    1.22956E+03    1.09868E+03    9.48462E+02    7.72734E+02    5.82286E+02    3.79478E+02    1.92278E+02    2.93053E+01   -8.52594E+01   -1.41719E+02   -1.45651E+02   -1.14710E+02   -7.49499E+01   -4.18175E+01   -2.05849E+01   -3.00217E+00   -2.83697E-01   -9.42965E-02  
 -190.0    X      5.26440E-02    5.20316E-02    5.13669E-02    5.07707E-02    5.01819E-02    1.20276E+03    1.15332E+03    1.11287E+03    1.07413E+03    1.03952E+03    1.00687E+03    9.77064E+02    9.46225E+02    9.18943E+02    8.90553E+02    8.65338E+02    8.39020E+02    8.15759E+02    7.89784E+02    7.68302E+02   -4.67125E+02   -4.54511E+02   -4.49289E+02   -4.41952E+02   -4.32414E+02   -4.22234E+02   -4.09994E+02   -3.95243E+02   -3.78639E+02   -3.58744E+02   -3.35528E+02   -3.07845E+02   -2.76561E+02   -2.40265E+02   -1.99981E+02   -1.57460E+02   -1.16542E+02   -7.86540E+01   -4.78458E+01   -2.59067E+01   -1.23829E+01   -1.76398E+00   -1.51864E-01   -5.78938E-02    1.78526E+03    1.70347E+03    1.66552E+03    1.60839E+03    1.52623E+03    1.43210E+03    1.31295E+03    1.16602E+03    9.98406E+02    8.03578E+02    5.93877E+02    3.72411E+02    1.70136E+02   -3.15311E+00   -1.21196E+02   -1.74094E+02   -1.68654E+02   -1.28109E+02   -8.00836E+01   -4.23085E+01   -1.95091E+01   -2.40087E+00   -1.90197E-01   -5.92162E-02  
 -190.0    Y     -3.60893E-03   -3.56596E-03   -3.51933E-03   -3.47752E-03   -3.43624E-03    1.66367E+02    1.70500E+02    1.73852E+02    1.77074E+02    1.79959E+02    1.82683E+02    1.85169E+02    1.87741E+02    1.90015E+02    1.92380E+02    1.94479E+02    1.96668E+02    1.98601E+02    2.00758E+02    2.02540E+02    3.89417E+01    3.78308E+01    3.73830E+01    3.67632E+01    3.59687E+01    3.51257E+01    3.41101E+01    3.28780E+01    3.14816E+01    2.98003E+01    2.78335E+01    2.54871E+01    2.28389E+01    1.97750E+01    1.63890E+01    1.28354E+01    9.43916E+00    6.32000E+00    3.80769E+00    2.03779E+00    9.60287E-01    1.31310E-01    1.06848E-02    3.98400E-03    2.41364E+02    2.36739E+02    2.34280E+02    2.30385E+02    2.24340E+02    2.17037E+02    2.07360E+02    1.94948E+02    1.80061E+02    1.61909E+02    1.41305E+02    1.17853E+02    9.42410E+01    7.07392E+01    4.98620E+01    3.29606E+01    2.05398E+01    1.21809E+01    6.74357E+00    3.39039E+00    1.52840E+00    1.79891E-01    1.34308E-02    4.06706E-03  
 -190.0    Z      8.90186E-02    8.80329E-02    8.69622E-02    8.60010E-02    8.50514E-02    1.27228E+03    1.22937E+03    1.19506E+03    1.16185E+03    1.13181E+03    1.10320E+03    1.07689E+03    1.04950E+03    1.02515E+03    9.99696E+02    9.77000E+02    9.53227E+02    9.32147E+02    9.08531E+02    8.88942E+02   -4.13317E+02   -4.01658E+02   -3.97078E+02   -3.90886E+02   -3.83168E+02   -3.75174E+02   -3.65670E+02   -3.54151E+02   -3.40976E+02   -3.24886E+02   -3.05758E+02   -2.82572E+02   -2.55996E+02   -2.24765E+02   -1.89656E+02   -1.52042E+02   -1.15163E+02   -8.01542E+01   -5.07189E+01   -2.88388E+01   -1.46088E+01   -2.40875E+00   -2.42471E-01   -9.71431E-02    1.88504E+03    1.80256E+03    1.76450E+03    1.70740E+03    1.62535E+03    1.53128E+03    1.41178E+03    1.26366E+03    1.09350E+03    8.94281E+02    6.78169E+02    4.47711E+02    2.34586E+02    4.84439E+01   -8.32940E+01   -1.49579E+02   -1.56551E+02   -1.23965E+02   -8.10615E+01   -4.51569E+01   -2.21692E+01   -3.20898E+00   -3.00863E-01   -9.97205E-02  
 -180.0    X      7.11532E-02    7.03223E-02    6.94204E-02    6.86115E-02    6.78127E-02    1.26738E+03    1.19535E+03    1.13706E+03    1.08129E+03    1.03144E+03    9.84402E+02    9.41466E+02    8.97033E+02    8.57729E+02    8.16833E+02    7.80516E+02    7.42620E+02    7.09134E+02    6.71751E+02    6.40842E+02   -6.74321E+02   -6.55297E+02   -6.47519E+02   -6.36687E+02   -6.22750E+02   -6.07988E+02   -5.90313E+02   -5.69037E+02   -5.45064E+02   -5.16296E+02   -4.82676E+02   -4.42550E+02   -3.97192E+02   -3.44592E+02   -2.86289E+02   -2.24879E+02   -1.65950E+02   -1.11584E+02   -6.75737E+01   -3.63962E+01   -1.72931E+01   -2.42901E+00   -2.06234E-01   -7.82971E-02    1.89192E+03    1.79288E+03    1.74769E+03    1.68015E+03    1.58405E+03    1.47481E+03    1.33742E+03    1.16889E+03    9.77926E+02    7.57409E+02    5.21899E+02    2.76141E+02    5.55620E+01   -1.27571E+02   -2.43621E+02   -2.82173E+02   -2.53164E+02   -1.85776E+02   -1.14205E+02   -5.97623E+01   -2.73542E+01   -3.31276E+00   -2.58505E-01   -8.00641E-02  
 -180.0    Y     -4.23121E-03   -4.18048E-03   -4.12544E-03   -4.07609E-03   -4.02737E-03    9.22163E+01    9.83863E+01    1.03350E+02    1.08124E+02    1.12407E+02    1.16456E+02    1.20153E+02    1.23977E+02    1.27358E+02    1.30872E+02    1.33989E+02    1.37236E+02    1.40100E+02    1.43293E+02    1.45928E+02    5.78455E+01    5.61542E+01    5.54742E+01    5.45380E+01    5.33464E+01    5.20892E+01    5.05774E+01    4.87386E+01    4.66427E+01    4.41025E+01    4.11130E+01    3.75324E+01    3.34861E+01    2.88140E+01    2.36797E+01    1.83426E+01    1.33086E+01    8.76276E+00    5.17648E+00    2.70940E+00    1.24672E+00    1.62088E-01    1.26575E-02    4.67615E-03    1.31736E+02    1.31624E+02    1.31265E+02    1.30530E+02    1.29042E+02    1.26978E+02    1.23970E+02    1.19836E+02    1.14481E+02    1.07507E+02    9.90430E+01    8.85592E+01    7.69613E+01    6.39875E+01    5.06310E+01    3.76670E+01    2.59811E+01    1.63732E+01    9.23181E+00    4.58442E+00    2.01527E+00    2.23625E-01    1.59478E-02    4.77216E-03  
 -180.0    Z      9.91863E-02    9.80851E-02    9.68891E-02    9.58156E-02    9.47549E-02    9.29047E+02    8.82348E+02    8.45162E+02    8.08981E+02    7.76106E+02    7.44692E+02    7.15736E+02    6.85536E+02    6.58647E+02    6.30510E+02    6.05400E+02    5.79080E+02    5.55727E+02    5.29551E+02    5.07828E+02   -4.54375E+02   -4.41567E+02   -4.36596E+02   -4.29940E+02   -4.21741E+02   -4.13313E+02   -4.03305E+02   -3.91110E+02   -3.77042E+02   -3.59704E+02   -3.38922E+02   -3.13567E+02   -2.84363E+02   -2.49930E+02   -2.11130E+02   -1.69485E+02   -1.28580E+02   -8.96642E+01   -5.68537E+01   -3.23888E+01   -1.64285E+01   -2.70641E+00   -2.70913E-01   -1.08281E-01    1.38500E+03    1.31456E+03    1.28270E+03    1.23534E+03    1.16814E+03    1.09175E+03    9.95305E+02    8.76223E+02    7.40118E+02    5.81559E+02    4.10632E+02    2.30379E+02    6.64600E+01   -7.23190E+01   -1.63880E+02   -1.99727E+02   -1.86525E+02   -1.41477E+02   -9.11885E+01   -5.06811E+01   -2.49121E+01   -3.60690E+00   -3.36286E-01   -1.11132E-01  
 -170.0    X      9.37030E-02    9.25981E-02    9.13992E-02    9.03238E-02    8.92623E-02    1.88590E+03    1.77473E+03    1.68575E+03    1.60096E+03    1.52534E+03    1.45409E+03    1.38914E+03    1.32199E+03    1.26264E+03    1.20094E+03    1.14619E+03    1.08909E+03    1.03867E+03    9.82415E+02    9.35930E+02   -1.02343E+03   -9.93008E+02   -9.80669E+02   -9.63585E+02   -9.41750E+02   -9.18761E+02   -8.91366E+02   -8.58513E+02   -8.21610E+02   -7.77441E+02   -7.25954E+02   -6.64646E+02   -5.95500E+02   -5.15494E+02   -4.27031E+02   -3.34138E+02   -2.45349E+02   -1.63866E+02   -9.83776E+01   -5.24151E+01   -2.45838E+01   -3.34401E+00   -2.74775E-01   -1.03271E-01    2.81826E+03    2.66735E+03    2.59887E+03    2.49682E+03    2.35210E+03    2.18798E+03    1.98198E+03    1.72970E+03    1.44423E+03    1.11504E+03    7.63970E+02    3.98283E+02    7.08481E+01   -1.99954E+02   -3.70098E+02   -4.24385E+02   -3.78110E+02   -2.75582E+02   -1.67935E+02   -8.68824E+01   -3.92187E+01   -4.58231E+00   -3.45100E-01   -1.05529E-01  
 -170.0    Y      3.79984E-05    3.92492E-05    4.05766E-05    4.17403E-05    4.28641E-05   -3.56835E+02   -3.49554E+02   -3.43731E+02   -3.38263E+02   -3.33473E+02   -3.29032E+02   -3.25041E+02   -3.20969E+02   -3.17414E+02   -3.13759E+02   -3.10550E+02   -3.07239E+02   -3.04344E+02   -3.01147E+02   -2.98531E+02    6.27881E+01    6.06566E+01    5.97815E+01    5.85528E+01    5.69506E+01    5.52303E+01    5.31537E+01    5.06582E+01    4.78793E+01    4.46062E+01    4.08689E+01    3.65234E+01    3.17561E+01    2.64218E+01    2.07706E+01    1.51641E+01    1.01857E+01    6.03869E+00    3.10486E+00    1.35491E+00    4.93676E-01    3.08473E-02    4.46669E-04   -1.59498E-05   -5.26112E+02   -5.06125E+02   -4.96711E+02   -4.82448E+02   -4.61688E+02   -4.37688E+02   -4.07058E+02   -3.69036E+02   -3.25282E+02   -2.74012E+02   -2.18321E+02   -1.58606E+02   -1.02874E+02   -5.32374E+01   -1.64693E+01    4.83287E+00    1.20144E+01    1.04159E+01    6.07537E+00    2.66289E+00    9.35844E-01    4.86898E-02    6.97612E-04   -2.73559E-05  
 -170.0    Z      1.04087E-01    1.02930E-01    1.01674E-01    1.00546E-01    9.94320E-02    1.45556E+03    1.40747E+03    1.36922E+03    1.33189E+03    1.29786E+03    1.26527E+03    1.23519E+03    1.20378E+03    1.17578E+03    1.14647E+03    1.12030E+03    1.09285E+03    1.06848E+03    1.04117E+03    1.01849E+03   -4.71562E+02   -4.58337E+02   -4.53238E+02   -4.46451E+02   -4.38144E+02   -4.29645E+02   -4.19553E+02   -4.07208E+02   -3.92882E+02   -3.75117E+02   -3.53706E+02   -3.27473E+02   -2.97162E+02   -2.61345E+02   -2.20927E+02   -1.77494E+02   -1.34785E+02   -9.40986E+01   -5.97391E+01   -3.40721E+01   -1.72972E+01   -2.84964E+00   -2.84621E-01   -1.13649E-01    2.15657E+03    2.06225E+03    2.01886E+03    1.95386E+03    1.86060E+03    1.75368E+03    1.61775E+03    1.44894E+03    1.25457E+03    1.02651E+03    7.78607E+02    5.13791E+02    2.68515E+02    5.40135E+01   -9.79879E+01   -1.74582E+02   -1.82936E+02   -1.44972E+02   -9.51265E+01   -5.32076E+01   -2.62123E+01   -3.79824E+00   -3.53359E-01   -1.16633E-01  
 -160.0    X      1.04302E-01    1.03068E-01    1.01728E-01    1.00527E-01    9.93414E-02    2.16816E+03    2.03165E+03    1.92290E+03    1.81938E+03    1.72710E+03    1.64020E+03    1.56102E+03    1.47920E+03    1.40692E+03    1.33182E+03    1.26521E+03    1.19579E+03    1.13452E+03    1.06621E+03    1.00979E+03   -1.24841E+03   -1.21047E+03   -1.19513E+03   -1.17394E+03   -1.14695E+03   -1.11859E+03   -1.08484E+03   -1.04437E+03   -9.98897E+02   -9.44454E+02   -8.80985E+02   -8.05442E+02   -7.20332E+02   -6.22038E+02   -5.13658E+02   -4.00296E+02   -2.92485E+02   -1.94161E+02   -1.15733E+02   -6.11643E+01   -2.84388E+01   -3.79779E+00   -3.07286E-01   -1.15019E-01    3.24515E+03    3.06561E+03    2.98453E+03    2.86397E+03    2.69351E+03    2.50065E+03    2.25899E+03    1.96348E+03    1.62965E+03    1.24535E+03    8.36390E+02    4.11783E+02    3.34528E+01   -2.76640E+02   -4.67258E+02   -5.21263E+02   -4.57816E+02   -3.30274E+02   -1.99367E+02   -1.02130E+02   -4.56310E+01   -5.21738E+00   -3.86269E-01   -1.17506E-01  
 -160.0    Y      4.88129E-03    4.82066E-03    4.75491E-03    4.69599E-03    4.63787E-03    3.29606E+02    3.17334E+02    3.07982E+02    2.99235E+02    2.91500E+02    2.84247E+02    2.77659E+02    2.70868E+02    2.64883E+02    2.58675E+02    2.53180E+02    2.47462E+02    2.42425E+02    2.36818E+02    2.32194E+02   -1.05362E+02   -1.01605E+02   -1.00104E+02   -9.80623E+01   -9.55166E+01   -9.29081E+01   -8.98747E+01   -8.63068E+01   -8.23480E+01   -7.76459E+01   -7.21951E+01   -6.57373E+01   -5.84939E+01   -5.01689E+01   -4.10457E+01   -3.15837E+01   -2.26905E+01   -1.47143E+01   -8.50049E+00   -4.31268E+00   -1.90525E+00   -2.21503E-01   -1.52756E-02   -5.42576E-03    4.89186E+02    4.66882E+02    4.56666E+02    4.41412E+02    4.19650E+02    3.94876E+02    3.63640E+02    3.25202E+02    2.81330E+02    2.30265E+02    1.75188E+02    1.16787E+02    6.31346E+01    1.66641E+01   -1.57962E+01   -3.16899E+01   -3.27549E+01   -2.48663E+01   -1.50027E+01   -7.44673E+00   -3.16216E+00   -3.10988E-01   -1.94041E-02   -5.52521E-03  
 -160.0    Z      1.16523E-01    1.15222E-01    1.13808E-01    1.12540E-01    1.11286E-01    1.31535E+03    1.25924E+03    1.21465E+03    1.17093E+03    1.13095E+03    1.09258E+03    1.05709E+03    1.02000E+03    9.86924E+02    9.52267E+02    9.21309E+02    8.88836E+02    8.60006E+02    8.27679E+02    8.00841E+02   -5.55160E+02   -5.39719E+02   -5.33798E+02   -5.25961E+02   -5.16431E+02   -5.06718E+02   -4.95176E+02   -4.80977E+02   -4.64370E+02   -4.43620E+02   -4.18449E+02   -3.87460E+02   -3.51542E+02   -3.09029E+02   -2.61029E+02   -2.09466E+02   -1.58811E+02   -1.10626E+02   -7.00195E+01   -3.97740E+01   -2.00866E+01   -3.26144E+00   -3.20495E-01   -1.27327E-01    1.95588E+03    1.86221E+03    1.81963E+03    1.75623E+03    1.66596E+03    1.56300E+03    1.43256E+03    1.27088E+03    1.08520E+03    8.67885E+02    6.32484E+02    3.82681E+02    1.53662E+02   -4.28322E+01   -1.76282E+02   -2.34630E+02   -2.26299E+02   -1.73608E+02   -1.12312E+02   -6.23646E+01   -3.05429E+01   -4.35659E+00   -3.98275E-01   -1.30622E-01  
 -150.0    X      1.10050E-01    1.08747E-01    1.07334E-01    1.06067E-01    1.04815E-01    2.81485E+03    2.67097E+03    2.55636E+03    2.44710E+03    2.34962E+03    2.25774E+03    2.17398E+03    2.08739E+03    2.01089E+03    1.93138E+03    1.86086E+03    1.78734E+03    1.72246E+03    1.65012E+03    1.59037E+03   -1.31969E+03   -1.27969E+03   -1.26354E+03   -1.24127E+03   -1.21294E+03   -1.18320E+03   -1.14778E+03   -1.10526E+03   -1.05739E+03   -9.99951E+02   -9.32871E+02   -8.52918E+02   -7.62759E+02   -6.58585E+02   -5.43717E+02   -4.23600E+02   -3.09415E+02   -2.05333E+02   -1.22353E+02   -6.46443E+01   -3.00487E+01   -4.01040E+00   -3.24284E-01   -1.21360E-01    4.19572E+03    3.98342E+03    3.88672E+03    3.74243E+03    3.53720E+03    3.30391E+03    3.01029E+03    2.64973E+03    2.24027E+03    1.76640E+03    1.25903E+03    7.27471E+02    2.47672E+02   -1.54902E+02   -4.16722E+02   -5.15381E+02   -4.71509E+02   -3.45984E+02   -2.10268E+02   -1.07914E+02   -4.82202E+01   -5.50996E+00   -4.07653E-01   -1.23984E-01  
