Data type: dB/dt; UNIT: nT/s
Number of stations: 131
Stations (m): -200.0 -190.0 -180.0 -170.0 -160.0 -150.0 -140.0 -130.0 -120.0 -110.0 -100.0 -90.0 -80.0 -70.0 -60.0 -50.0 -40.0 -30.0 -20.0 -10.0 0.0 10.0 20.0 30.0 40.0 50.0 60.0 70.0 80.0 90.0 100.0 110.0 120.0 130.0 140.0 150.0 160.0 170.0 180.0 190.0 200.0 210.0 220.0 230.0 240.0 250.0 260.0 270.0 280.0 290.0 300.0 310.0 320.0 330.0 340.0 350.0 360.0 370.0 380.0 390.0 400.0 410.0 420.0 430.0 440.0 450.0 460.0 470.0 480.0 490.0 500.0 510.0 520.0 530.0 540.0 550.0 560.0 570.0 580.0 590.0 600.0 610.0 620.0 630.0 640.0 650.0 660.0 670.0 680.0 690.0 700.0 710.0 720.0 730.0 740.0 750.0 760.0 770.0 780.0 790.0 800.0 810.0 820.0 830.0 840.0 850.0 860.0 870.0 880.0 890.0 900.0 910.0 920.0 930.0 940.0 950.0 960.0 970.0 980.0 990.0 1000.0 1010.0 1020.0 1030.0 1040.0 1050.0 1060.0 1070.0 1080.0 1090.0 1100.0
Channel times (ms):
   1    -1.9500 
   2    -1.8500 
   3    -1.7500 
   4    -1.6500 
   5    -1.5500 
   6    -1.4495 
   7    -1.3500 
   8    -1.2500 
   9    -1.1500 
   10   -1.0500 
   11   -0.9500 
   12   -0.8500 
   13   -0.7500 
   14   -0.6500 
   15   -0.5500 
   16   -0.4500 
   17   -0.3500 
   18   -0.2500 
   19   -0.1500 
   20   -0.0500 
   21    0.0255 
   22    0.0550 
   23    0.0700 
   24    0.0950 
   25    0.1300 
   26    0.1750 
   27    0.2350 
   28    0.3150 
   29    0.4200 
   30    0.5600 
   31    0.7450 
   32    0.9900 
   33    1.3150 
   34    1.7450 
   35    2.3150 
   36    3.0750 
   37    4.0850 
   38    5.4250 
   39    7.2050 
   40    9.5700 
   41    12.6600
   42    22.7300
   43    39.3950
   44    48.1150
   45    48.5255
   46    48.5550
   47    48.5700
   48    48.5950
   49    48.6300
   50    48.6750
   51    48.7350
   52    48.8150
   53    48.9200
   54    49.0600
   55    49.2450
   56    49.4900
   57    49.8150
   58    50.2450
   59    50.8150
   60    51.5750
   61    52.5850
   62    53.9250
   63    55.7050
   64    58.0700
   65    61.1600
   66    71.2300
   67    87.8950
   68    97.1150
EM data:
Station Component      CH1            CH2            CH3            CH4            CH5            CH6            CH7            CH8            CH9           CH10           CH11           CH12           CH13           CH14           CH15           CH16           CH17           CH18           CH19           CH20           CH21           CH22           CH23           CH24           CH25           CH26           CH27           CH28           CH29           CH30           CH31           CH32           CH33           CH34           CH35           CH36           CH37           CH38           CH39           CH40           CH41           CH42           CH43           CH44           CH45           CH46           CH47           CH48           CH49           CH50           CH51           CH52           CH53           CH54           CH55           CH56           CH57           CH58           CH59           CH60           CH61           CH62           CH63           CH64           CH65           CH66           CH67           CH68      
 -200.0    X      1.30055E-15    1.16322E-15    1.07921E-15    9.74199E-16    9.06344E-16    5.61525E+02    4.73112E+02    4.07816E+02    3.54679E+02    3.15169E+02    2.84294E+02    2.61000E+02    2.41058E+02    2.26441E+02    2.13788E+02    2.04414E+02    1.96213E+02    1.90131E+02    1.84427E+02    1.80435E+02   -4.12717E+02   -3.80428E+02   -3.65623E+02   -3.43750E+02   -3.14142E+02   -2.82046E+02   -2.44138E+02   -2.01258E+02   -1.58381E+02   -1.15786E+02   -7.81071E+01   -4.72505E+01   -2.58526E+01   -1.22882E+01   -5.00972E+00   -1.73203E+00   -5.08264E-01   -1.15478E-01   -1.99369E-02   -2.43571E-03   -1.96874E-04   -1.14756E-07   -8.27399E-13   -4.05755E-15    8.65561E+02    7.88999E+02    7.54509E+02    7.03546E+02    6.33531E+02    5.57457E+02    4.67730E+02    3.67360E+02    2.67417E+02    1.70212E+02    8.81568E+01    2.55305E+01   -1.03115E+01   -2.44701E+01   -2.27574E+01   -1.43692E+01   -6.52109E+00   -2.02149E+00   -4.07886E-01   -4.84567E-02   -3.18016E-03   -7.74143E-07   -3.22920E-12   -2.75134E-15  
 -200.0    Y     -3.06962E-16   -2.72226E-16   -2.73034E-16   -2.38299E-16   -2.50416E-16   -4.33232E+02   -3.66207E+02   -3.18500E+02   -2.81551E+02   -2.55480E+02   -2.36132E+02   -2.22258E+02   -2.10956E+02   -2.03065E+02   -1.96550E+02   -1.91941E+02   -1.88085E+02   -1.85349E+02   -1.82892E+02   -1.81244E+02    2.75122E+02    2.50170E+02    2.38687E+02    2.21743E+02    1.98963E+02    1.74607E+02    1.46463E+02    1.15682E+02    8.62787E+01    5.87827E+01    3.63172E+01    1.96583E+01    9.43813E+00    3.83881E+00    1.30929E+00    3.75349E-01    9.27656E-02    1.84872E-02    2.98496E-03    3.57870E-04    2.89296E-05    1.69054E-08    1.21906E-13    5.80804E-16   -6.67361E+02   -6.08798E+02   -5.82366E+02   -5.43357E+02   -4.90006E+02   -4.32539E+02   -3.65632E+02   -2.92169E+02   -2.20568E+02   -1.52468E+02   -9.58922E+01   -5.21088E+01   -2.46118E+01   -8.92537E+00   -2.08243E+00    3.36858E-02    3.33561E-01    1.32864E-01    3.35103E-02    4.84058E-03    3.79274E-04    1.12518E-07    4.76849E-13    6.55928E-16  
 -200.0    Z      2.17296E-15    1.90316E-15    1.70444E-15    1.49442E-15    1.34902E-15    6.44683E+02    5.11640E+02    4.13832E+02    3.35239E+02    2.77456E+02    2.32674E+02    1.99076E+02    1.70404E+02    1.49412E+02    1.31233E+02    1.17736E+02    1.05891E+02    9.70684E+01    8.87508E+01    8.28962E+01   -6.08525E+02   -5.60739E+02   -5.38552E+02   -5.05608E+02   -4.60924E+02   -4.12590E+02   -3.55842E+02   -2.92266E+02   -2.29426E+02   -1.67731E+02   -1.13686E+02   -6.96150E+01   -3.89079E+01   -1.91071E+01   -8.13978E+00   -2.96490E+00   -9.19990E-01   -2.21665E-01   -4.05273E-02   -5.20894E-03   -4.35320E-04   -2.58987E-07   -1.86887E-12   -9.14422E-15    1.00811E+03    9.02891E+02    8.55377E+02    7.85170E+02    6.89322E+02    5.86184E+02    4.66332E+02    3.35150E+02    2.08625E+02    9.09599E+01   -1.54192E+00   -6.33736E+01   -8.79911E+01   -8.34683E+01   -6.08443E+01   -3.44460E+01   -1.50432E+01   -4.43255E+00   -8.77365E-01   -1.02958E-01   -6.74079E-03   -1.71271E-06   -7.28761E-12   -5.68202E-15  
 -190.0    X      1.31186E-15    1.17615E-15    1.05983E-15    1.01782E-15    8.35259E-16    5.85049E+02    4.85210E+02    4.11231E+02    3.50773E+02    3.05647E+02    2.70268E+02    2.43505E+02    2.20545E+02    2.03686E+02    1.89075E+02    1.78239E+02    1.68753E+02    1.61715E+02    1.55113E+02    1.50492E+02   -4.70357E+02   -4.33912E+02   -4.17217E+02   -3.92550E+02   -3.59139E+02   -3.22872E+02   -2.79945E+02   -2.31240E+02   -1.82356E+02   -1.33590E+02   -9.02636E+01   -5.46471E+01   -2.98839E+01   -1.41746E+01   -5.75765E+00   -1.98132E+00   -5.78596E-01   -1.30855E-01   -2.25040E-02   -2.74084E-03   -2.21101E-04   -1.28723E-07   -9.28039E-13   -4.51961E-15    9.05653E+02    8.21300E+02    7.83403E+02    7.27467E+02    6.50764E+02    5.67560E+02    4.69612E+02    3.60351E+02    2.52139E+02    1.47876E+02    6.14671E+01   -1.96568E+00   -3.48725E+01   -4.32382E+01   -3.47537E+01   -2.05398E+01   -8.95067E+00   -2.70049E+00   -5.31592E-01   -6.14892E-02   -3.91002E-03   -8.82914E-07   -3.62206E-12   -3.03084E-15  
 -190.0    Y     -6.51082E-16   -6.26848E-16   -6.64006E-16   -4.78214E-16   -6.59160E-16   -4.14036E+02   -3.34932E+02   -2.78248E+02   -2.33977E+02   -2.02465E+02   -1.78879E+02   -1.61824E+02   -1.47815E+02   -1.37954E+02   -1.29746E+02   -1.23894E+02   -1.18959E+02   -1.15429E+02   -1.12234E+02   -1.10073E+02    3.31378E+02    3.02023E+02    2.88519E+02    2.68584E+02    2.41742E+02    2.12970E+02    1.79595E+02    1.42882E+02    1.07546E+02    7.41707E+01    4.65437E+01    2.57168E+01    1.26682E+01    5.32729E+00    1.89589E+00    5.71591E-01    1.48763E-01    3.09398E-02    5.10547E-03    6.14824E-04    4.96101E-05    2.89308E-08    2.08601E-13    1.06336E-15   -6.45203E+02   -5.80355E+02   -5.51250E+02   -5.08401E+02   -4.50111E+02   -3.87666E+02   -3.15497E+02   -2.37120E+02   -1.62185E+02   -9.31617E+01   -3.91384E+01   -2.01671E+00    1.56618E+01    1.95340E+01    1.51063E+01    8.51145E+00    3.55671E+00    1.01204E+00    1.89535E-01    2.07431E-02    1.22777E-03    2.14880E-07    8.15527E-13    9.53196E-16  
 -190.0    Z      2.42217E-15    2.26324E-15    2.04841E-15    1.72459E-15    1.69389E-15    6.86441E+02    5.41135E+02    4.34201E+02    3.48211E+02    2.84960E+02    2.35928E+02    1.99138E+02    1.67744E+02    1.44761E+02    1.24861E+02    1.10090E+02    9.71318E+01    8.74823E+01    7.83888E+01    7.19905E+01   -6.65468E+02   -6.13311E+02   -5.89091E+02   -5.53117E+02   -5.04304E+02   -4.51481E+02   -3.89430E+02   -3.19874E+02   -2.51087E+02   -1.83526E+02   -1.24330E+02   -7.60660E+01   -4.24592E+01   -2.08145E+01   -8.84756E+00   -3.21460E+00   -9.94843E-01   -2.39043E-01   -4.35885E-02   -5.58948E-03   -4.66431E-04   -2.77249E-07   -2.00057E-12   -9.79692E-15    1.07513E+03    9.61026E+02    9.09522E+02    8.33429E+02    7.29585E+02    6.17892E+02    4.88190E+02    3.46390E+02    2.09929E+02    8.35164E+01   -1.50964E+01   -7.98388E+01   -1.03911E+02   -9.62486E+01   -6.93036E+01   -3.89265E+01   -1.68820E+01   -4.95415E+00   -9.75599E-01   -1.13786E-01   -7.39116E-03   -1.84135E-06   -7.80147E-12   -6.11984E-15  
 -180.0    X      1.10241E-15    1.01345E-15    9.61451E-16    8.10520E-16    7.39939E-16    5.71632E+02    4.75766E+02    4.04621E+02    3.46318E+02    3.02673E+02    2.68360E+02    2.42337E+02    2.19959E+02    2.03493E+02    1.89194E+02    1.78571E+02    1.69257E+02    1.62336E+02    1.55835E+02    1.51281E+02   -4.54846E+02   -4.19840E+02   -4.03822E+02   -3.80164E+02   -3.48119E+02   -3.13316E+02   -2.72073E+02   -2.25188E+02   -1.78005E+02   -1.30777E+02   -8.86429E+01   -5.38494E+01   -2.95434E+01   -1.40547E+01   -5.72288E+00   -1.97275E+00   -5.76637E-01   -1.30438E-01   -2.24225E-02   -2.72887E-03   -2.20001E-04   -1.28031E-07   -9.23024E-13   -4.47200E-15    8.84110E+02    8.02623E+02    7.66023E+02    7.11999E+02    6.37877E+02    5.57398E+02    4.62520E+02    3.56450E+02    2.51073E+02    1.49123E+02    6.41428E+01    1.22930E+00   -3.19601E+01   -4.10693E+01   -3.34299E+01   -1.98933E+01   -8.70145E+00   -2.63617E+00   -5.20409E-01   -6.03709E-02   -3.85153E-03   -8.76656E-07   -3.60247E-12   -3.11156E-15  
 -180.0    Y     -5.83227E-16   -5.02448E-16   -4.92754E-16   -4.79829E-16   -4.62058E-16   -4.72097E+02   -3.83572E+02   -3.20228E+02   -2.70866E+02   -2.35831E+02   -2.09693E+02   -1.90859E+02   -1.75447E+02   -1.64641E+02   -1.55682E+02   -1.49320E+02   -1.43977E+02   -1.40172E+02   -1.36743E+02   -1.34433E+02    3.68284E+02    3.35389E+02    3.20258E+02    2.97923E+02    2.67857E+02    2.35644E+02    1.98308E+02    1.57297E+02    1.17915E+02    8.08521E+01    5.03404E+01    2.75185E+01    1.33743E+01    5.52905E+00    1.92731E+00    5.67726E-01    1.44405E-01    2.94640E-02    4.80776E-03    5.76365E-04    4.64494E-05    2.70764E-08    1.95237E-13    1.01136E-15   -7.34874E+02   -6.61899E+02   -6.29134E+02   -5.80892E+02   -5.15243E+02   -4.44896E+02   -3.63573E+02   -2.75231E+02   -1.90716E+02   -1.12767E+02   -5.15436E+01   -9.03517E+00    1.19327E+01    1.77183E+01    1.42617E+01    8.14626E+00    3.42924E+00    9.73569E-01    1.82288E-01    1.99508E-02    1.18023E-03    2.02988E-07    7.63325E-13    6.97934E-16  
 -180.0    Z      2.57201E-15    2.33937E-15    2.04210E-15    1.80946E-15    1.65436E-15    7.57554E+02    6.14743E+02    5.09502E+02    4.24839E+02    3.62533E+02    3.14203E+02    2.77911E+02    2.46912E+02    2.24196E+02    2.04506E+02    1.89876E+02    1.77025E+02    1.67445E+02    1.58408E+02    1.52041E+02   -6.55561E+02   -6.04481E+02   -5.80716E+02   -5.45385E+02   -4.97408E+02   -4.45463E+02   -3.84424E+02   -3.15987E+02   -2.48284E+02   -1.81746E+02   -1.23376E+02   -7.56891E+01   -4.23849E+01   -2.08530E+01   -8.89603E+00   -3.24255E+00   -1.00601E+00   -2.42174E-01   -4.42135E-02   -5.67404E-03   -4.73687E-04   -2.81629E-07   -2.03219E-12   -9.98756E-15    1.17778E+03    1.06231E+03    1.00998E+03    9.32509E+02    8.26399E+02    7.11835E+02    5.78142E+02    4.30953E+02    2.87685E+02    1.52540E+02    4.35485E+01   -3.33284E+01   -6.96758E+01   -7.38618E+01   -5.66489E+01   -3.30395E+01   -1.47959E+01   -4.40711E+00   -8.84679E-01   -1.05401E-01   -7.02182E-03   -1.85023E-06   -7.92474E-12   -5.90659E-15  
 -170.0    X      1.83379E-15    1.68960E-15    1.53521E-15    1.39021E-15    1.27742E-15    6.74074E+02    5.35990E+02    4.33106E+02    3.48385E+02    2.84690E+02    2.34442E+02    1.96230E+02    1.63304E+02    1.39039E+02    1.17948E+02    1.02269E+02    8.85181E+01    7.82995E+01    6.87039E+01    6.19835E+01   -6.61915E+02   -6.11499E+02   -5.88462E+02   -5.54434E+02   -5.08307E+02   -4.58126E+02   -3.98510E+02   -3.30496E+02   -2.61760E+02   -1.92641E+02   -1.30704E+02   -7.93807E+01   -4.34664E+01   -2.05974E+01   -8.33836E+00   -2.85404E+00   -8.28027E-01   -1.85895E-01   -3.17309E-02   -3.83796E-03   -3.08144E-04   -1.78865E-07   -1.28938E-12   -6.25111E-15    1.05498E+03    9.44007E+02    8.94471E+02    8.21538E+02    7.21974E+02    6.14386E+02    4.88316E+02    3.48592E+02    2.11894E+02    8.29916E+01   -1.92603E+01   -8.70150E+01   -1.11882E+02   -1.02680E+02   -7.30539E+01   -4.03792E+01   -1.68087E+01   -4.91224E+00   -9.37303E-01   -1.04595E-01   -6.35367E-03   -1.26598E-06   -5.03302E-12   -4.08905E-15  
 -170.0    Y     -3.03730E-16   -3.59064E-16   -2.55263E-16   -2.01544E-16   -2.51224E-16   -5.01642E+02   -3.90796E+02   -3.11423E+02   -2.49677E+02   -2.06008E+02   -1.73585E+02   -1.50360E+02   -1.31483E+02   -1.18346E+02   -1.07543E+02   -9.99361E+01   -9.36046E+01   -8.91366E+01   -8.51488E+01   -8.24885E+01    4.57251E+02    4.16089E+02    3.97130E+02    3.69123E+02    3.31391E+02    2.90942E+02    2.44056E+02    1.92601E+02    1.43309E+02    9.71521E+01    5.94985E+01    3.17485E+01    1.49355E+01    5.90697E+00    1.94318E+00    5.33794E-01    1.26181E-01    2.42122E-02    3.83447E-03    4.58329E-04    3.71489E-05    2.17648E-08    1.56948E-13    7.22167E-16   -7.89057E+02   -7.01696E+02   -6.62587E+02   -6.05098E+02   -5.27195E+02   -4.44138E+02   -3.48836E+02   -2.46530E+02   -1.50625E+02   -6.51178E+01   -2.10102E+00    3.60947E+01    4.81455E+01    4.26861E+01    2.87533E+01    1.49525E+01    5.88391E+00    1.60201E+00    2.86096E-01    2.94888E-02    1.60004E-03    1.91125E-07    6.14464E-13    6.43004E-16  
 -170.0    Z      2.80466E-15    2.55909E-15    2.22305E-15    2.04210E-15    1.86116E-15    7.88230E+02    6.16743E+02    4.90056E+02    3.87972E+02    3.12760E+02    2.54376E+02    2.10517E+02    1.73053E+02    1.45604E+02    1.21821E+02    1.04161E+02    8.86616E+01    7.71185E+01    6.62403E+01    5.85872E+01   -7.89588E+02   -7.28419E+02   -6.99919E+02   -6.57512E+02   -5.99866E+02   -5.37384E+02   -4.63881E+02   -3.81364E+02   -2.99628E+02   -2.19205E+02   -1.48598E+02   -9.09189E+01   -5.06989E+01   -2.47910E+01   -1.04931E+01   -3.79112E+00   -1.16598E+00   -2.78348E-01   -5.04438E-02   -6.43466E-03   -5.35162E-04   -3.17463E-07   -2.29058E-12   -1.11169E-14    1.23629E+03    1.10315E+03    1.04294E+03    9.53887E+02    8.32288E+02    7.01460E+02    5.49557E+02    3.83602E+02    2.24193E+02    7.70571E+01   -3.68109E+01   -1.10038E+02   -1.34880E+02   -1.22002E+02   -8.67369E+01   -4.83001E+01   -2.08030E+01   -6.06491E+00   -1.18603E+00   -1.37122E-01   -8.80208E-03   -2.12414E-06   -8.93267E-12   -6.60452E-15  
 -160.0    X      2.44923E-15    2.24567E-15    2.14631E-15    1.86600E-15    1.79815E-15    7.35799E+02    5.96847E+02    4.91720E+02    4.03614E+02    3.36300E+02    2.82471E+02    2.41061E+02    2.05034E+02    1.78268E+02    1.54845E+02    1.37333E+02    1.21902E+02    1.10390E+02    9.95425E+01    9.19249E+01   -6.94461E+02   -6.44088E+02   -6.21097E+02   -5.87099E+02   -5.40852E+02   -4.90227E+02   -4.29532E+02   -3.59395E+02   -2.87411E+02   -2.13754E+02   -1.46512E+02   -8.98002E+01   -4.95066E+01   -2.35577E+01   -9.55057E+00   -3.26644E+00   -9.45726E-01   -2.11744E-01   -3.60403E-02   -4.34773E-03   -3.48445E-04   -2.02029E-07   -1.45625E-12   -6.99590E-15    1.14557E+03    1.03164E+03    9.80707E+02    9.05566E+02    8.02500E+02    6.90390E+02    5.57823E+02    4.09042E+02    2.61111E+02    1.18747E+02    2.66268E+00   -7.76351E+01   -1.11066E+02   -1.06194E+02   -7.71818E+01   -4.32140E+01   -1.81435E+01   -5.33543E+00   -1.02340E+00   -1.14842E-01   -7.02254E-03   -1.42408E-06   -5.68480E-12   -4.79506E-15  
 -160.0    Y     -1.03398E-15   -9.30578E-16   -9.43503E-16   -9.43503E-16   -9.43503E-16   -5.87223E+02   -4.61541E+02   -3.71467E+02   -3.01346E+02   -2.51746E+02   -2.14932E+02   -1.88583E+02   -1.67190E+02   -1.52322E+02   -1.40116E+02   -1.31536E+02   -1.24408E+02   -1.19388E+02   -1.14918E+02   -1.11943E+02    5.18455E+02    4.71765E+02    4.50267E+02    4.18507E+02    3.75711E+02    3.29813E+02    2.76582E+02    2.18128E+02    1.62112E+02    1.09668E+02    6.69360E+01    3.55277E+01    1.65890E+01    6.49324E+00    2.10671E+00    5.68791E-01    1.31843E-01    2.48291E-02    3.88636E-03    4.62559E-04    3.74667E-05    2.19519E-08    1.58234E-13    6.75315E-16   -9.21669E+02   -8.21803E+02   -7.77077E+02   -7.11301E+02   -6.22078E+02   -5.26828E+02   -4.17342E+02   -2.99520E+02   -1.88663E+02   -8.92679E+01   -1.52437E+01    3.07684E+01    4.69940E+01    4.32587E+01    2.95558E+01    1.54589E+01    6.10512E+00    1.66012E+00    2.96452E-01    3.05611E-02    1.65811E-03    1.95159E-07    6.20192E-13    9.11191E-16  
 -160.0    Z      2.61079E-15    2.52032E-15    2.10673E-15    1.95163E-15    1.64144E-15    6.78875E+02    4.95384E+02    3.59073E+02    2.49081E+02    1.67996E+02    1.05027E+02    5.77012E+01    1.72534E+01   -1.24008E+01   -3.81122E+01   -5.72196E+01   -7.40017E+01   -8.65103E+01   -9.83077E+01   -1.06614E+02   -8.49014E+02   -7.84349E+02   -7.54010E+02   -7.08710E+02   -6.46935E+02   -5.79822E+02   -5.00752E+02   -4.11896E+02   -3.23830E+02   -2.37139E+02   -1.60975E+02   -9.86756E+01   -5.51422E+01   -2.70220E+01   -1.14570E+01   -4.14315E+00   -1.27430E+00   -3.03995E-01   -5.50269E-02   -7.01033E-03   -5.82519E-04   -3.45364E-07   -2.49166E-12   -1.21864E-14    1.08094E+03    9.46812E+02    8.86071E+02    7.96200E+02    6.73839E+02    5.42747E+02    3.91626E+02    2.28440E+02    7.48887E+01   -6.19907E+01   -1.60739E+02   -2.13317E+02   -2.14653E+02   -1.76843E+02   -1.19333E+02   -6.42534E+01   -2.68998E+01   -7.71851E+00   -1.48070E+00   -1.67374E-01   -1.04410E-02   -2.34644E-06   -9.71776E-12   -7.36708E-15  
 -150.0    X      2.71419E-15    2.48477E-15    2.25859E-15    2.10996E-15    1.91609E-15    9.00946E+02    7.19045E+02    5.81458E+02    4.66236E+02    3.78325E+02    3.08144E+02    2.54257E+02    2.07470E+02    1.72780E+02    1.42484E+02    1.19878E+02    9.99965E+01    8.51907E+01    7.12662E+01    6.15041E+01   -9.05570E+02   -8.39518E+02   -8.09389E+02   -7.64840E+02   -7.04239E+02   -6.37900E+02   -5.58372E+02   -4.66514E+02   -3.72336E+02   -2.76151E+02   -1.88610E+02   -1.15090E+02   -6.31310E+01   -2.98742E+01   -1.20409E+01   -4.09446E+00   -1.17893E+00   -2.62507E-01   -4.44427E-02   -5.33538E-03   -4.26177E-04   -2.46577E-07   -1.77711E-12   -8.59492E-15    1.40856E+03    1.26203E+03    1.19666E+03    1.10032E+03    9.68409E+02    8.25192E+02    6.56256E+02    4.67351E+02    2.80689E+02    1.02852E+02   -3.94808E+01   -1.33994E+02   -1.67784E+02   -1.52580E+02   -1.08055E+02   -5.95189E+01   -2.46744E+01   -7.19198E+00   -1.36657E+00   -1.51624E-01   -9.13026E-03   -1.76283E-06   -6.93836E-12   -5.74180E-15  
