Data type: dB/dt; UNIT: nT/s
Number of stations: 131
Stations (m): -200.0 -190.0 -180.0 -170.0 -160.0 -150.0 -140.0 -130.0 -120.0 -110.0 -100.0 -90.0 -80.0 -70.0 -60.0 -50.0 -40.0 -30.0 -20.0 -10.0 0.0 10.0 20.0 30.0 40.0 50.0 60.0 70.0 80.0 90.0 100.0 110.0 120.0 130.0 140.0 150.0 160.0 170.0 180.0 190.0 200.0 210.0 220.0 230.0 240.0 250.0 260.0 270.0 280.0 290.0 300.0 310.0 320.0 330.0 340.0 350.0 360.0 370.0 380.0 390.0 400.0 410.0 420.0 430.0 440.0 450.0 460.0 470.0 480.0 490.0 500.0 510.0 520.0 530.0 540.0 550.0 560.0 570.0 580.0 590.0 600.0 610.0 620.0 630.0 640.0 650.0 660.0 670.0 680.0 690.0 700.0 710.0 720.0 730.0 740.0 750.0 760.0 770.0 780.0 790.0 800.0 810.0 820.0 830.0 840.0 850.0 860.0 870.0 880.0 890.0 900.0 910.0 920.0 930.0 940.0 950.0 960.0 970.0 980.0 990.0 1000.0 1010.0 1020.0 1030.0 1040.0 1050.0 1060.0 1070.0 1080.0 1090.0 1100.0
Channel times (ms):
   1    -1.9500 
   2    -1.8500 
   3    -1.7500 
   4    -1.6500 
   5    -1.5500 
   6    -1.4495 
   7    -1.3500 
   8    -1.2500 
   9    -1.1500 
   10   -1.0500 
   11   -0.9500 
   12   -0.8500 
   13   -0.7500 
   14   -0.6500 
   15   -0.5500 
   16   -0.4500 
   17   -0.3500 
   18   -0.2500 
   19   -0.1500 
   20   -0.0500 
   21    0.0255 
   22    0.0550 
   23    0.0700 
   24    0.0950 
   25    0.1300 
   26    0.1750 
   27    0.2350 
   28    0.3150 
   29    0.4200 
   30    0.5600 
   31    0.7450 
   32    0.9900 
   33    1.3150 
   34    1.7450 
   35    2.3150 
   36    3.0750 
   37    4.0850 
   38    5.4250 
   39    7.2050 
   40    9.5700 
   41    12.6600
   42    22.7300
   43    39.3950
   44    48.1150
   45    48.5255
   46    48.5550
   47    48.5700
   48    48.5950
   49    48.6300
   50    48.6750
   51    48.7350
   52    48.8150
   53    48.9200
   54    49.0600
   55    49.2450
   56    49.4900
   57    49.8150
   58    50.2450
   59    50.8150
   60    51.5750
   61    52.5850
   62    53.9250
   63    55.7050
   64    58.0700
   65    61.1600
   66    71.2300
   67    87.8950
   68    97.1150
EM data:
Station Component      CH1            CH2            CH3            CH4            CH5            CH6            CH7            CH8            CH9           CH10           CH11           CH12           CH13           CH14           CH15           CH16           CH17           CH18           CH19           CH20           CH21           CH22           CH23           CH24           CH25           CH26           CH27           CH28           CH29           CH30           CH31           CH32           CH33           CH34           CH35           CH36           CH37           CH38           CH39           CH40           CH41           CH42           CH43           CH44           CH45           CH46           CH47           CH48           CH49           CH50           CH51           CH52           CH53           CH54           CH55           CH56           CH57           CH58           CH59           CH60           CH61           CH62           CH63           CH64           CH65           CH66           CH67           CH68      
 -200.0    X      4.25094E-02    4.20258E-02    4.15007E-02    4.10294E-02    4.05640E-02    6.20706E+02    6.05172E+02    5.91961E+02    5.79208E+02    5.67790E+02    5.56999E+02    5.47125E+02    5.36873E+02    5.27769E+02    5.18252E+02    5.09760E+02    5.00853E+02    4.92938E+02    4.84049E+02    4.76655E+02   -1.54544E+02   -1.51069E+02   -1.49609E+02   -1.47512E+02   -1.44710E+02   -1.41650E+02   -1.37928E+02   -1.33448E+02   -1.28455E+02   -1.22554E+02   -1.15753E+02   -1.07701E+02   -9.85933E+01   -8.79032E+01   -7.57404E+01   -6.23724E+01   -4.87703E+01   -3.52326E+01   -2.31997E+01   -1.37134E+01   -7.17859E+00   -1.22021E+00   -1.18949E-01   -4.65852E-02    9.15861E+02    8.80109E+02    8.63161E+02    8.37369E+02    7.99720E+02    7.56096E+02    7.00369E+02    6.31145E+02    5.51514E+02    4.58185E+02    3.56720E+02    2.47893E+02    1.46220E+02    5.56505E+01   -1.11970E+01   -4.89550E+01   -5.92133E+01   -5.08318E+01   -3.52755E+01   -2.07446E+01   -1.06660E+01   -1.62337E+00   -1.48022E-01   -4.77103E-02  
 -200.0    Y     -7.44693E-03   -7.35350E-03   -7.25223E-03   -7.16150E-03   -7.07202E-03   -4.78863E+02   -4.66479E+02   -4.56386E+02   -4.46691E+02   -4.37992E+02   -4.29756E+02   -4.22214E+02   -4.14386E+02   -4.07443E+02   -4.00200E+02   -3.93753E+02   -3.87010E+02   -3.81039E+02   -3.74357E+02   -3.68821E+02    1.18367E+02    1.15240E+02    1.13950E+02    1.12149E+02    1.09828E+02    1.07371E+02    1.04433E+02    1.00896E+02    9.69033E+01    9.20934E+01    8.64410E+01    7.96458E+01    7.18943E+01    6.28016E+01    5.25794E+01    4.16282E+01    3.09224E+01    2.08567E+01    1.25735E+01    6.65405E+00    3.04639E+00    3.63090E-01    2.37511E-02    8.29040E-03   -7.07155E+02   -6.78958E+02   -6.65687E+02   -6.45597E+02   -6.16445E+02   -5.82814E+02   -5.39954E+02   -4.86747E+02   -4.25509E+02   -3.53684E+02   -2.75571E+02   -1.91841E+02   -1.13793E+02   -4.46301E+01    5.82895E+00    3.35177E+01    4.00483E+01    3.27559E+01    2.10059E+01    1.10480E+01    4.93639E+00    5.10469E-01    3.03233E-02    8.44337E-03  
 -200.0    Z      7.79980E-02    7.71473E-02    7.62231E-02    7.53933E-02    7.45732E-02    7.33321E+02    7.09095E+02    6.89675E+02    6.70941E+02    6.54040E+02    6.37960E+02    6.23175E+02    6.07775E+02    5.94068E+02    5.79723E+02    5.66913E+02    5.53472E+02    5.41531E+02    5.28127E+02    5.16984E+02   -2.33200E+02   -2.26774E+02   -2.24230E+02   -2.20770E+02   -2.16438E+02   -2.11949E+02   -2.06642E+02   -2.00274E+02   -1.93072E+02   -1.84369E+02   -1.74109E+02   -1.61738E+02   -1.47578E+02   -1.30888E+02   -1.11970E+02   -9.14135E+01   -7.08461E+01   -5.07837E+01   -3.33104E+01   -1.97547E+01   -1.04848E+01   -1.91230E+00   -2.08282E-01   -8.49215E-02    1.08600E+03    1.03898E+03    1.01721E+03    9.84493E+02    9.37413E+02    8.83394E+02    8.14788E+02    7.29786E+02    6.32171E+02    5.17897E+02    3.93881E+02    2.61447E+02    1.38629E+02    3.07675E+01   -4.64699E+01   -8.66056E+01   -9.25988E+01   -7.54532E+01   -5.11724E+01   -2.98552E+01   -1.54476E+01   -2.51359E+00   -2.57401E-01   -8.72531E-02  
 -190.0    X      4.83346E-02    4.77829E-02    4.71839E-02    4.66463E-02    4.61154E-02    6.52056E+02    6.34387E+02    6.19431E+02    6.05017E+02    5.92122E+02    5.79941E+02    5.68797E+02    5.57227E+02    5.46951E+02    5.36209E+02    5.26622E+02    5.16562E+02    5.07621E+02    4.97577E+02    4.89219E+02   -1.74787E+02   -1.70764E+02   -1.69085E+02   -1.66684E+02   -1.63490E+02   -1.60015E+02   -1.55802E+02   -1.50745E+02   -1.45126E+02   -1.38503E+02   -1.30889E+02   -1.21892E+02   -1.11726E+02   -9.97902E+01   -8.61864E+01   -7.11842E+01   -5.58465E+01   -4.04917E+01   -2.67541E+01   -1.58556E+01   -8.30922E+00   -1.40677E+00   -1.35785E-01   -5.29965E-02    9.62834E+02    9.24412E+02    9.06260E+02    8.78672E+02    8.38471E+02    7.91951E+02    7.32594E+02    6.58939E+02    5.74322E+02    4.75271E+02    3.67719E+02    2.52552E+02    1.45168E+02    4.97970E+01   -2.01959E+01   -5.91340E+01   -6.87391E+01   -5.84636E+01   -4.05757E+01   -2.39348E+01   -1.23374E+01   -1.87337E+00   -1.69085E-01   -5.42641E-02  
 -190.0    Y     -1.21008E-02   -1.19535E-02   -1.17938E-02   -1.16507E-02   -1.15095E-02   -4.67944E+02   -4.53248E+02   -4.41331E+02   -4.29899E+02   -4.19648E+02   -4.09943E+02   -4.01057E+02   -3.91832E+02   -3.83647E+02   -3.75105E+02   -3.67497E+02   -3.59536E+02   -3.52481E+02   -3.44582E+02   -3.38032E+02    1.39822E+02    1.36056E+02    1.34515E+02    1.32371E+02    1.29622E+02    1.26724E+02    1.23271E+02    1.19129E+02    1.14468E+02    1.08870E+02    1.02308E+02    9.44310E+01    8.54501E+01    7.49049E+01    6.30173E+01    5.02203E+01    3.76227E+01    2.56657E+01    1.57025E+01    8.46929E+00    3.97233E+00    5.09582E-01    3.70504E-02    1.34035E-02   -6.92400E+02   -6.63198E+02   -6.49558E+02   -6.28974E+02   -5.99241E+02   -5.65058E+02   -5.21620E+02   -4.67831E+02   -4.06111E+02   -3.33926E+02   -2.55665E+02   -1.72147E+02   -9.47515E+01   -2.68291E+01    2.17643E+01    4.69937E+01    5.06469E+01    4.03833E+01    2.59279E+01    1.38459E+01    6.33540E+00    7.07461E-01    4.69407E-02    1.36747E-02  
 -190.0    Z      8.42911E-02    8.33700E-02    8.23692E-02    8.14707E-02    8.05827E-02    7.83382E+02    7.56766E+02    7.35546E+02    7.15099E+02    6.96652E+02    6.79101E+02    6.62962E+02    6.46148E+02    6.31181E+02    6.15515E+02    6.01523E+02    5.86842E+02    5.73796E+02    5.59151E+02    5.46975E+02   -2.54953E+02   -2.47801E+02   -2.44979E+02   -2.41154E+02   -2.36387E+02   -2.31470E+02   -2.25676E+02   -2.18738E+02   -2.10898E+02   -2.01424E+02   -1.90254E+02   -1.76781E+02   -1.61352E+02   -1.43154E+02   -1.22510E+02   -1.00055E+02   -7.75666E+01   -5.56091E+01   -3.64706E+01   -2.16174E+01   -1.14616E+01   -2.08233E+00   -2.25584E-01   -9.18015E-02    1.16062E+03    1.10981E+03    1.08634E+03    1.05111E+03    1.00049E+03    9.42467E+02    8.68833E+02    7.77648E+02    6.72973E+02    5.50469E+02    4.17562E+02    2.75700E+02    1.44224E+02    2.88897E+01   -5.34962E+01   -9.59857E+01   -1.01776E+02   -8.27157E+01   -5.60495E+01   -3.26847E+01   -1.68975E+01   -2.73876E+00   -2.78872E-01   -9.43072E-02  
 -180.0    X      4.81789E-02    4.76291E-02    4.70322E-02    4.64965E-02    4.59674E-02    6.36017E+02    6.19076E+02    6.04688E+02    5.90823E+02    5.78428E+02    5.66725E+02    5.56023E+02    5.44914E+02    5.35049E+02    5.24738E+02    5.15534E+02    5.05876E+02    4.97292E+02    4.87646E+02    4.79618E+02   -1.67836E+02   -1.64017E+02   -1.62418E+02   -1.60124E+02   -1.57060E+02   -1.53716E+02   -1.49657E+02   -1.44787E+02   -1.39384E+02   -1.33030E+02   -1.25743E+02   -1.17151E+02   -1.07459E+02   -9.60870E+01   -8.31229E+01   -6.88057E+01   -5.41305E+01   -3.93840E+01   -2.61271E+01   -1.55515E+01   -8.18502E+00   -1.39606E+00   -1.35274E-01   -5.28237E-02    9.38961E+02    9.01707E+02    8.84086E+02    8.57288E+02    8.18208E+02    7.72961E+02    7.15211E+02    6.43541E+02    5.61198E+02    4.64803E+02    3.60125E+02    2.48002E+02    1.43401E+02    5.04013E+01   -1.80090E+01   -5.63049E+01   -6.61068E+01   -5.65438E+01   -3.94410E+01   -2.33891E+01   -1.21200E+01   -1.85749E+00   -1.68421E-01   -5.40872E-02  
 -180.0    Y     -1.16789E-02   -1.15348E-02   -1.13786E-02   -1.12387E-02   -1.11006E-02   -5.32454E+02   -5.16000E+02   -5.02655E+02   -4.89855E+02   -4.78377E+02   -4.67513E+02   -4.57564E+02   -4.47238E+02   -4.38076E+02   -4.28516E+02   -4.20002E+02   -4.11093E+02   -4.03199E+02   -3.94362E+02   -3.87036E+02    1.56510E+02    1.52291E+02    1.50564E+02    1.48161E+02    1.45079E+02    1.41830E+02    1.37958E+02    1.33311E+02    1.28080E+02    1.21795E+02    1.14425E+02    1.05576E+02    9.54812E+01    8.36243E+01    7.02563E+01    5.58708E+01    4.17251E+01    2.83296E+01    1.72135E+01    9.19540E+00    4.25806E+00    5.25846E-01    3.64078E-02    1.29653E-02   -7.87723E+02   -7.54657E+02   -7.39204E+02   -7.15880E+02   -6.82178E+02   -6.43421E+02   -5.94159E+02   -5.33145E+02   -4.63117E+02   -3.81198E+02   -2.92359E+02   -1.97519E+02   -1.09589E+02   -3.23620E+01    2.29697E+01    5.18166E+01    5.61950E+01    4.47822E+01    2.86214E+01    1.51548E+01    6.84846E+00    7.34643E-01    4.62819E-02    1.32168E-02  
 -180.0    Z      8.52829E-02    8.43523E-02    8.33413E-02    8.24334E-02    8.15362E-02    8.52527E+02    8.26414E+02    8.05662E+02    7.85650E+02    7.67574E+02    7.50358E+02    7.34516E+02    7.18002E+02    7.03297E+02    6.87899E+02    6.74144E+02    6.59706E+02    6.46876E+02    6.32469E+02    6.20491E+02   -2.50306E+02   -2.43243E+02   -2.40466E+02   -2.36715E+02   -2.32063E+02   -2.27283E+02   -2.21661E+02   -2.14926E+02   -2.07300E+02   -1.98062E+02   -1.87140E+02   -1.73938E+02   -1.58795E+02   -1.40915E+02   -1.20622E+02   -9.85480E+01   -7.64436E+01   -5.48622E+01   -3.60436E+01   -2.14197E+01   -1.13957E+01   -2.08817E+00   -2.27816E-01   -9.28610E-02    1.26164E+03    1.20807E+03    1.18325E+03    1.14594E+03    1.09224E+03    1.03059E+03    9.52242E+02    8.55075E+02    7.43322E+02    6.12293E+02    4.69847E+02    3.17365E+02    1.75506E+02    5.02843E+01   -4.02952E+01   -8.87116E+01   -9.81598E+01   -8.09522E+01   -5.52029E+01   -3.23093E+01   -1.67640E+01   -2.74323E+00   -2.81531E-01   -9.54046E-02  
 -170.0    X      6.90558E-02    6.82635E-02    6.74034E-02    6.66316E-02    6.58693E-02    7.67747E+02    7.42594E+02    7.21720E+02    7.01714E+02    6.83858E+02    6.67009E+02    6.51605E+02    6.35616E+02    6.21417E+02    6.06571E+02    5.93317E+02    5.79405E+02    5.67034E+02    5.53128E+02    5.41550E+02   -2.43232E+02   -2.37127E+02   -2.34628E+02   -2.31108E+02   -2.26506E+02   -2.21575E+02   -2.15666E+02   -2.08638E+02   -2.00885E+02   -1.91802E+02   -1.81416E+02   -1.69199E+02   -1.55431E+02   -1.39272E+02   -1.20807E+02   -1.00328E+02   -7.92144E+01   -5.78484E+01   -3.84973E+01   -2.29571E+01   -1.20807E+01   -2.04386E+00   -1.95092E-01   -7.57767E-02    1.13613E+03    1.08792E+03    1.06539E+03    1.03129E+03    9.81907E+02    9.25011E+02    8.52681E+02    7.63204E+02    6.60758E+02    5.41206E+02    4.11806E+02    2.73813E+02    1.45789E+02    3.29535E+01   -4.86488E+01   -9.22480E+01   -1.00045E+02   -8.36268E+01   -5.80663E+01   -3.44826E+01   -1.78910E+01   -2.72376E+00   -2.43133E-01   -7.75592E-02  
 -170.0    Y     -1.00115E-02   -9.88259E-03   -9.74289E-03   -9.61779E-03   -9.49447E-03   -5.76941E+02   -5.56458E+02   -5.39816E+02   -5.23833E+02   -5.09492E+02   -4.95907E+02   -4.83463E+02   -4.70540E+02   -4.59072E+02   -4.47101E+02   -4.36438E+02   -4.25278E+02   -4.15388E+02   -4.04315E+02   -3.95134E+02    1.95663E+02    1.90433E+02    1.88294E+02    1.85320E+02    1.81504E+02    1.77477E+02    1.72673E+02    1.66900E+02    1.60393E+02    1.52562E+02    1.43361E+02    1.32290E+02    1.19630E+02    1.04722E+02    8.78718E+01    6.97022E+01    5.18197E+01    3.49065E+01    2.09389E+01    1.09665E+01    4.93458E+00    5.53035E-01    3.30810E-02    1.11951E-02   -8.54895E+02   -8.17454E+02   -8.00037E+02   -7.73796E+02   -7.35989E+02   -6.92603E+02   -6.37562E+02   -5.69500E+02   -4.91553E+02   -4.00559E+02   -3.02118E+02   -1.97416E+02   -1.00852E+02   -1.68225E+01    4.22006E+01    7.11485E+01    7.24891E+01    5.63043E+01    3.53843E+01    1.83859E+01    8.08925E+00    7.85989E-01    4.25144E-02    1.13843E-02  
 -170.0    Z      9.86427E-02    9.75596E-02    9.63829E-02    9.53264E-02    9.42824E-02    9.02094E+02    8.70669E+02    8.45831E+02    8.21882E+02    8.00235E+02    7.79604E+02    7.60608E+02    7.40796E+02    7.23147E+02    7.04660E+02    6.88139E+02    6.70794E+02    6.55375E+02    6.38057E+02    6.23655E+02   -3.00518E+02   -2.91911E+02   -2.88545E+02   -2.84020E+02   -2.78440E+02   -2.72739E+02   -2.66056E+02   -2.58060E+02   -2.49003E+02   -2.38016E+02   -2.25008E+02   -2.09259E+02   -1.91168E+02   -1.69773E+02   -1.45449E+02   -1.18938E+02   -9.23353E+01   -6.63040E+01   -4.35563E+01   -2.58510E+01   -1.37112E+01   -2.47888E+00   -2.65381E-01   -1.07510E-01    1.33715E+03    1.27788E+03    1.25059E+03    1.20971E+03    1.15110E+03    1.08402E+03    9.98952E+02    8.93615E+02    7.72670E+02    6.31081E+02    4.77420E+02    3.13394E+02    1.61398E+02    2.81561E+01   -6.68286E+01   -1.15465E+02   -1.21480E+02   -9.85521E+01   -6.68365E+01   -3.90419E+01   -2.02091E+01   -3.26377E+00   -3.28322E-01   -1.10404E-01  
 -160.0    X      7.88253E-02    7.79193E-02    7.69357E-02    7.60531E-02    7.51814E-02    8.29940E+02    8.04621E+02    7.83622E+02    7.63528E+02    7.45616E+02    7.28725E+02    7.13282E+02    6.97246E+02    6.82995E+02    6.68080E+02    6.54749E+02    6.40738E+02    6.28261E+02    6.14213E+02    6.02497E+02   -2.44670E+02   -2.38519E+02   -2.36016E+02   -2.32496E+02   -2.27901E+02   -2.22986E+02   -2.17116E+02   -2.10177E+02   -2.02581E+02   -1.93759E+02   -1.83759E+02   -1.72070E+02   -1.58939E+02   -1.43495E+02   -1.25705E+02   -1.05683E+02   -8.46173E+01   -6.27708E+01   -4.24417E+01   -2.56796E+01   -1.36708E+01   -2.34040E+00   -2.23128E-01   -8.65221E-02    1.22727E+03    1.17622E+03    1.15232E+03    1.11615E+03    1.06368E+03    1.00317E+03    9.26178E+02    8.30871E+02    7.21647E+02    5.94053E+02    4.55751E+02    3.07897E+02    1.70183E+02    4.79514E+01   -4.17222E+01   -9.14726E+01   -1.03161E+02   -8.84410E+01   -6.28121E+01   -3.80872E+01   -2.00984E+01   -3.11645E+00   -2.78141E-01   -8.85449E-02  
 -160.0    Y     -1.04040E-02   -1.02684E-02   -1.01214E-02   -9.98986E-03   -9.86019E-03   -6.72662E+02   -6.49400E+02   -6.30514E+02   -6.12384E+02   -5.96121E+02   -5.80719E+02   -5.66612E+02   -5.51963E+02   -5.38962E+02   -5.25390E+02   -5.13301E+02   -5.00647E+02   -4.89433E+02   -4.76875E+02   -4.66462E+02    2.21941E+02    2.15983E+02    2.13551E+02    2.10169E+02    2.05833E+02    2.01260E+02    1.95806E+02    1.89259E+02    1.81885E+02    1.73019E+02    1.62609E+02    1.50085E+02    1.35763E+02    1.18887E+02    9.97902E+01    7.91687E+01    5.88436E+01    3.95983E+01    2.37000E+01    1.23624E+01    5.52729E+00    6.05589E-01    3.49387E-02    1.16588E-02   -9.96438E+02   -9.53141E+02   -9.32989E+02   -9.02620E+02   -8.58843E+02   -8.08587E+02   -7.44809E+02   -6.65921E+02   -5.75541E+02   -4.69993E+02   -3.55751E+02   -2.34143E+02   -1.21852E+02   -2.39297E+01    4.51588E+01    7.94983E+01    8.18609E+01    6.38145E+01    4.01175E+01    2.07939E+01    9.09933E+00    8.64188E-01    4.50293E-02    1.18468E-02  
 -160.0    Z      1.07800E-01    1.06616E-01    1.05330E-01    1.04175E-01    1.03033E-01    7.98985E+02    7.65842E+02    7.39775E+02    7.14541E+02    6.91630E+02    6.69719E+02    6.49492E+02    6.28355E+02    6.09494E+02    5.89712E+02    5.72015E+02    5.53420E+02    5.36877E+02    5.18285E+02    5.02815E+02   -3.19781E+02   -3.10663E+02   -3.07125E+02   -3.02409E+02   -2.96659E+02   -2.90840E+02   -2.84044E+02   -2.75889E+02   -2.66580E+02   -2.55179E+02   -2.41553E+02   -2.24920E+02   -2.05682E+02   -1.82812E+02   -1.56717E+02   -1.28212E+02   -9.95776E+01   -7.15491E+01   -4.70527E+01   -2.79753E+01   -1.48740E+01   -2.70372E+00   -2.90080E-01   -1.17499E-01    1.18731E+03    1.13119E+03    1.10558E+03    1.06741E+03    1.01301E+03    9.51010E+02    8.72603E+02    7.75648E+02    6.64495E+02    5.34533E+02    3.93726E+02    2.43965E+02    1.05983E+02   -1.36292E+01   -9.67681E+01   -1.35973E+02   -1.35133E+02   -1.07364E+02   -7.23084E+01   -4.22076E+01   -2.18902E+01   -3.55742E+00   -3.58861E-01   -1.20656E-01  
 -150.0    X      9.81312E-02    9.69990E-02    9.57698E-02    9.46669E-02    9.35777E-02    1.02508E+03    9.91227E+02    9.63598E+02    9.37256E+02    9.13796E+02    8.91679E+02    8.71461E+02    8.50468E+02    8.31812E+02    8.12288E+02    7.94837E+02    7.76495E+02    7.60162E+02    7.41773E+02    7.26438E+02   -3.21697E+02   -3.13089E+02   -3.09625E+02   -3.04807E+02   -2.98602E+02   -2.92046E+02   -2.84287E+02   -2.75162E+02   -2.65198E+02   -2.53638E+02   -2.40537E+02   -2.25222E+02   -2.08009E+02   -1.87749E+02   -1.64386E+02   -1.38066E+02   -1.10367E+02   -8.16637E+01   -5.50159E+01   -3.31310E+01   -1.75389E+01   -2.96336E+00   -2.79022E-01   -1.07779E-01    1.51752E+03    1.45247E+03    1.42221E+03    1.37655E+03    1.31057E+03    1.23471E+03    1.13838E+03    1.01933E+03    8.83069E+02    7.24079E+02    5.51944E+02    3.68203E+02    1.97399E+02    4.62668E+01   -6.39288E+01   -1.24029E+02   -1.36419E+02   -1.15831E+02   -8.17949E+01   -4.93340E+01   -2.58762E+01   -3.95318E+00   -3.48067E-01   -1.10267E-01  
