Data type: dB/dt; UNIT: nT/s
Number of stations: 301
Stations (m): -299.7 -297.7 -295.7 -293.7 -291.7 -289.7 -287.7 -285.7 -283.7 -281.7 -279.7 -277.7 -275.7 -273.7 -271.7 -269.7 -267.7 -265.7 -263.7 -261.7 -259.7 -257.7 -255.7 -253.7 -251.7 -249.7 -247.7 -245.7 -243.7 -241.7 -239.7 -237.7 -235.7 -233.7 -231.7 -229.7 -227.7 -225.7 -223.7 -221.7 -219.7 -217.7 -215.7 -213.7 -211.7 -209.7 -207.7 -205.7 -203.7 -201.7 -199.7 -197.7 -195.7 -193.7 -191.7 -189.7 -187.7 -185.7 -183.7 -181.7 -179.7 -177.7 -175.7 -173.7 -171.7 -169.7 -167.7 -165.7 -163.7 -161.7 -159.7 -157.7 -155.7 -153.7 -151.7 -149.7 -147.7 -145.7 -143.7 -141.7 -139.7 -137.7 -135.7 -133.7 -131.7 -129.7 -127.7 -125.7 -123.7 -121.7 -119.7 -117.7 -115.7 -113.7 -111.7 -109.7 -107.7 -105.7 -103.7 -101.7 -99.7 -97.7 -95.7 -93.7 -91.7 -89.7 -87.7 -85.7 -83.7 -81.7 -79.7 -77.7 -75.7 -73.7 -71.7 -69.7 -67.7 -65.7 -63.7 -61.7 -59.7 -57.7 -55.7 -53.7 -51.7 -49.7 -47.7 -45.7 -43.7 -41.7 -39.7 -37.7 -35.7 -33.7 -31.7 -29.7 -27.7 -25.7 -23.7 -21.7 -19.7 -17.7 -15.7 -13.7 -11.7 -9.69999999999999 -7.69999999999999 -5.69999999999999 -3.69999999999999 -1.69999999999999 0.300000000000011 2.30000000000001 4.30000000000001 6.30000000000001 8.30000000000001 10.3 12.3 14.3 16.3 18.3 20.3 22.3 24.3 26.3 28.3 30.3 32.3 34.3 36.3 38.3 40.3 42.3 44.3 46.3 48.3 50.3 52.3 54.3 56.3 58.3 60.3 62.3 64.3 66.3 68.3 70.3 72.3 74.3 76.3 78.3 80.3 82.3 84.3 86.3 88.3 90.3 92.3 94.3 96.3 98.3 100.3 102.3 104.3 106.3 108.3 110.3 112.3 114.3 116.3 118.3 120.3 122.3 124.3 126.3 128.3 130.3 132.3 134.3 136.3 138.3 140.3 142.3 144.3 146.3 148.3 150.3 152.3 154.3 156.3 158.3 160.3 162.3 164.3 166.3 168.3 170.3 172.3 174.3 176.3 178.3 180.3 182.3 184.3 186.3 188.3 190.3 192.3 194.3 196.3 198.3 200.3 202.3 204.3 206.3 208.3 210.3 212.3 214.3 216.3 218.3 220.3 222.3 224.3 226.3 228.3 230.3 232.3 234.3 236.3 238.3 240.3 242.3 244.3 246.3 248.3 250.3 252.3 254.3 256.3 258.3 260.3 262.3 264.3 266.3 268.3 270.3 272.3 274.3 276.3 278.3 280.3 282.3 284.3 286.3 288.3 290.3 292.3 294.3 296.3 298.3 300.3
Channel times (ms):
   1    -1.9500 
   2    -1.8500 
   3    -1.7500 
   4    -1.6500 
   5    -1.5500 
   6    -1.4495 
   7    -1.3500 
   8    -1.2500 
   9    -1.1500 
   10   -1.0500 
   11   -0.9500 
   12   -0.8500 
   13   -0.7500 
   14   -0.6500 
   15   -0.5500 
   16   -0.4500 
   17   -0.3500 
   18   -0.2500 
   19   -0.1500 
   20   -0.0500 
   21    0.0255 
   22    0.0550 
   23    0.0700 
   24    0.0950 
   25    0.1300 
   26    0.1750 
   27    0.2350 
   28    0.3150 
   29    0.4200 
   30    0.5600 
   31    0.7450 
   32    0.9900 
   33    1.3150 
   34    1.7450 
   35    2.3150 
   36    3.0750 
   37    4.0850 
   38    5.4250 
   39    7.2050 
   40    9.5700 
   41    12.6600
   42    22.7300
   43    39.3950
   44    48.1150
   45    48.5255
   46    48.5550
   47    48.5700
   48    48.5950
   49    48.6300
   50    48.6750
   51    48.7350
   52    48.8150
   53    48.9200
   54    49.0600
   55    49.2450
   56    49.4900
   57    49.8150
   58    50.2450
   59    50.8150
   60    51.5750
   61    52.5850
   62    53.9250
   63    55.7050
   64    58.0700
   65    61.1600
   66    71.2300
   67    87.8950
   68    97.1150
EM data:
Station Component      CH1            CH2            CH3            CH4            CH5            CH6            CH7            CH8            CH9           CH10           CH11           CH12           CH13           CH14           CH15           CH16           CH17           CH18           CH19           CH20           CH21           CH22           CH23           CH24           CH25           CH26           CH27           CH28           CH29           CH30           CH31           CH32           CH33           CH34           CH35           CH36           CH37           CH38           CH39           CH40           CH41           CH42           CH43           CH44           CH45           CH46           CH47           CH48           CH49           CH50           CH51           CH52           CH53           CH54           CH55           CH56           CH57           CH58           CH59           CH60           CH61           CH62           CH63           CH64           CH65           CH66           CH67           CH68      
 -298.7    X     -6.94832E-14   -4.63221E-14   -5.29396E-14   -6.94832E-14   -7.61006E-14    1.71524E+00    1.19153E+00    9.29049E-01    7.26775E-01    5.77376E-01    4.59006E-01    3.67492E-01    2.86791E-01    2.25740E-01    1.71241E-01    1.29682E-01    9.24066E-02    6.41855E-02    3.73338E-02    1.84083E-02   -2.09817E+00   -1.67339E+00   -1.55228E+00   -1.41530E+00   -1.26924E+00   -1.13242E+00   -9.82486E-01   -8.19488E-01   -6.58509E-01   -4.95979E-01   -3.44764E-01   -2.09923E-01   -1.05298E-01   -3.11761E-02    1.01161E-02    2.37136E-02    2.05735E-02    1.16619E-02    4.49975E-03    1.13034E-03    1.71958E-04    3.87850E-07    1.77432E-11    1.74949E-13    3.09848E+00    2.33984E+00    2.12145E+00    1.86490E+00    1.57643E+00    1.29983E+00    9.96314E-01    6.73965E-01    3.66746E-01    8.05652E-02   -1.47170E-01   -2.98997E-01   -3.50166E-01   -3.11272E-01   -2.10624E-01   -9.84490E-02    1.31878E+01    9.57489E-03    9.53080E-03    3.43932E-03    6.36172E-04    1.39840E-06    4.92967E-11    1.32349E-13  
 -298.7    Y      6.12114E-14    6.94832E-14    8.10637E-14    4.46678E-14    5.45939E-14   -3.01874E-03   -2.31945E-03   -1.82236E-03   -1.42880E-03   -1.13489E-03   -9.00523E-04   -7.18737E-04   -5.58231E-04   -4.36789E-04   -3.28446E-04   -2.45914E-04   -1.71991E-04   -1.16116E-04   -6.30576E-05   -2.57442E-05    3.28162E-03    2.99036E-03    2.87015E-03    2.69955E-03    2.46974E-03    2.22212E-03    1.93654E-03    1.62051E-03    1.30465E-03    9.82659E-04    6.81421E-04    4.12451E-04    2.04103E-04    5.70838E-05   -2.41466E-05   -5.00480E-05   -4.26934E-05   -2.40644E-05   -9.26987E-06   -2.32964E-06   -3.55065E-07   -8.06015E-10   -2.83051E-14    4.65289E-15   -4.81560E-03   -4.21276E-03   -3.96458E-03   -3.61018E-03   -3.12996E-03   -2.61630E-03   -2.02951E-03   -1.39666E-03   -7.86915E-04   -2.12715E-04    2.48654E-04    5.60150E-04    6.70350E-04    6.00162E-04    4.05778E-04    1.87231E-04   -1.98444E-02   -2.16283E-05   -1.99738E-05   -7.11818E-06   -1.31330E-06   -2.90071E-09   -1.63782E-13   -7.11375E-14  
 -298.7    Z     -2.24993E-13   -2.38228E-13   -1.98523E-13   -2.11758E-13   -1.58819E-13    6.07536E-01    3.85612E-01    2.15355E-01    8.82515E-02   -7.81681E-04   -6.72567E-02   -1.15252E-01   -1.54305E-01   -1.81110E-01   -2.02330E-01   -2.16191E-01   -2.26283E-01   -2.31873E-01   -2.34893E-01   -2.35171E-01   -8.51903E-01   -8.34367E-01   -8.03027E-01   -7.45353E-01   -6.60074E-01   -5.67921E-01   -4.63444E-01   -3.50827E-01   -2.42289E-01   -1.36680E-01   -4.39459E-02    3.11839E-02    7.97295E-02    1.01368E-01    9.71935E-02    7.48060E-02    4.67988E-02    2.25029E-02    7.91113E-03    1.87699E-03    2.75598E-04    5.97209E-07    2.68222E-11    2.86618E-13    9.03669E-01    8.53781E-01    7.94938E-01    6.91979E-01    5.43635E-01    3.87427E-01    2.16598E-01    4.41661E-02   -1.06199E-01   -2.27170E-01   -2.97284E-01   -3.07030E-01   -2.54839E-01   -1.56355E-01   -4.64258E-02    3.49205E-02    1.24055E+01    4.97533E-02    2.32750E-02    6.57579E-03    1.08599E-03    2.17572E-06    7.46712E-11    2.64698E-13  
 -296.7    X     -1.72054E-13   -1.52201E-13   -1.52201E-13   -1.38966E-13   -1.52201E-13    1.75642E+00    1.22209E+00    9.53642E-01    7.46694E-01    5.93800E-01    4.72628E-01    3.78919E-01    2.96256E-01    2.33696E-01    1.77829E-01    1.35206E-01    9.69579E-02    6.79825E-02    4.03938E-02    2.09332E-02   -2.14371E+00   -1.71181E+00   -1.58847E+00   -1.44877E+00   -1.29961E+00   -1.15978E+00   -1.00648E+00   -8.39808E-01   -6.75170E-01   -5.08914E-01   -3.54185E-01   -2.16149E-01   -1.08964E-01   -3.29219E-02    9.57713E-03    2.37498E-02    2.07583E-02    1.18006E-02    4.55970E-03    1.14631E-03    1.74469E-04    3.93705E-07    1.80018E-11    1.76500E-13    3.16859E+00    2.39666E+00    2.17400E+00    1.91206E+00    1.61714E+00    1.33412E+00    1.02341E+00    6.93309E-01    3.78574E-01    8.52160E-02   -1.48470E-01   -3.04609E-01   -3.57749E-01   -3.18655E-01   -2.16138E-01   -1.01507E-01    1.31211E+01    9.42569E-03    9.60302E-03    3.48069E-03    6.44911E-04    1.41933E-06    5.00808E-11    1.85288E-13  
 -296.7    Y     -2.48154E-14   -2.31611E-14    0.00000E+00   -2.15067E-14   -8.27181E-15    4.05048E-03    3.09714E-03    2.42368E-03    1.90269E-03    1.52030E-03    1.21840E-03    9.85197E-04    7.79370E-04    6.23337E-04    4.83653E-04    3.76758E-04    2.80490E-04    2.07254E-04    1.37183E-04    8.74792E-05   -4.15749E-03   -3.97064E-03   -3.82442E-03   -3.58281E-03   -3.25260E-03   -2.91026E-03   -2.52491E-03   -2.10554E-03   -1.69423E-03   -1.28165E-03   -8.98859E-04   -5.56957E-04   -2.90086E-04   -9.88071E-05    1.04848E-05    4.99534E-05    4.63265E-05    2.69136E-05    1.05037E-05    2.65313E-06    4.04446E-07    9.10972E-10    3.18465E-14   -1.07533E-14    6.17019E-03    5.68895E-03    5.37771E-03    4.88155E-03    4.20372E-03    3.49922E-03    2.70873E-03    1.86639E-03    1.06512E-03    3.18025E-04   -2.81146E-04   -6.90949E-04   -8.45941E-04   -7.71334E-04   -5.34155E-04   -2.59060E-04   -1.81883E-02    1.74514E-05    2.12743E-05    7.94835E-06    1.48832E-06    3.28643E-09    1.05879E-13   -9.92617E-15  
 -296.7    Z     -1.42275E-13   -1.47238E-13   -1.19114E-13   -9.42986E-14   -1.07533E-13    6.37703E-01    4.08708E-01    2.32684E-01    1.01102E-01    8.79416E-03   -6.02442E-02   -1.10194E-01   -1.50944E-01   -1.79010E-01   -2.01332E-01   -2.16014E-01   -2.26821E-01   -2.32935E-01   -2.36433E-01   -2.37031E-01   -8.84050E-01   -8.66479E-01   -8.34252E-01   -7.74830E-01   -6.86882E-01   -5.91794E-01   -4.83945E-01   -3.67633E-01   -2.55458E-01   -1.46202E-01   -5.01149E-02    2.79465E-02    7.86868E-02    1.01770E-01    9.82565E-02    7.58963E-02    4.75801E-02    2.29097E-02    8.06126E-03    1.91376E-03    2.81108E-04    6.09443E-07    2.73627E-11    2.60562E-13    9.47669E-01    8.96426E-01    8.35575E-01    7.29005E-01    5.75317E-01    4.13327E-01    2.35954E-01    5.65843E-02   -1.00299E-01   -2.27209E-01   -3.01856E-01   -3.14352E-01   -2.62672E-01   -1.62767E-01   -5.02518E-02    3.36510E-02    1.32023E+01    5.03823E-02    2.36537E-02    6.69553E-03    1.10696E-03    2.22001E-06    7.61420E-11    2.24993E-13  
 -294.7    X     -1.19114E-13   -1.52201E-13   -1.38966E-13   -1.32349E-13   -1.58819E-13    1.88530E+00    1.31796E+00    1.03081E+00    8.09203E-01    6.45355E-01    5.15396E-01    4.14805E-01    3.25987E-01    2.58699E-01    1.98539E-01    1.52581E-01    1.11279E-01    7.99375E-02    5.00361E-02    2.88960E-02   -2.28566E+00   -1.83205E+00   -1.70181E+00   -1.55368E+00   -1.39485E+00   -1.24557E+00   -1.08175E+00   -9.03533E-01   -7.27427E-01   -5.49489E-01   -3.83749E-01   -2.35697E-01   -1.20484E-01   -3.84168E-02    7.86986E-03    2.38511E-02    2.13303E-02    1.22318E-02    4.74643E-03    1.19610E-03    1.82297E-04    4.11968E-07    1.88376E-11    1.68952E-13    3.38729E+00    2.57460E+00    2.33870E+00    2.06001E+00    1.74492E+00    1.44176E+00    1.10850E+00    7.54088E-01    4.15777E-01    9.99005E-02   -1.52463E-01   -3.22142E-01   -3.81488E-01   -3.41790E-01   -2.33428E-01   -1.11107E-01    1.28244E+01    8.94946E-03    9.82576E-03    3.60935E-03    6.72139E-04    1.48462E-06    5.24168E-11    2.11758E-13  
 -294.7    Y     -3.63959E-14   -4.63221E-14   -3.97047E-14   -4.30134E-14   -5.29396E-14    6.49970E-03    4.80570E-03    3.87236E-03    3.14669E-03    2.60673E-03    2.17452E-03    1.83597E-03    1.53277E-03    1.29932E-03    1.08682E-03    9.21195E-04    7.69032E-04    6.50651E-04    5.34454E-04    4.49684E-04   -7.10932E-03   -6.01522E-03   -5.65978E-03   -5.22234E-03   -4.72676E-03   -4.25202E-03   -3.72841E-03   -3.15803E-03   -2.59423E-03   -2.02251E-03   -1.48428E-03   -9.93525E-04   -5.97873E-04   -2.97899E-04   -1.05730E-04   -9.92535E-06    1.94236E-05    1.71899E-05    7.79845E-06    2.12061E-06    3.36393E-07    7.87909E-10    7.49293E-14    3.77118E-14    1.10270E-02    8.97192E-03    8.29353E-03    7.43034E-03    6.40245E-03    5.39073E-03    4.26562E-03    3.05667E-03    1.88742E-03    7.71998E-04   -1.55601E-04   -8.34474E-04   -1.15539E-03   -1.14205E-03   -8.66791E-04   -4.93196E-04   -2.60095E-02   -3.42233E-05    6.48971E-06    5.14061E-06    1.14712E-06    2.81477E-09    1.85288E-13    9.92617E-14  
 -294.7    Z     -1.25731E-13   -8.60268E-14   -9.26442E-14   -9.26442E-14   -7.94093E-14    6.56621E-01    4.23290E-01    2.43218E-01    1.08500E-01    1.39178E-02   -5.68857E-02   -1.08168E-01   -1.50061E-01   -1.78965E-01   -2.02007E-01   -2.17214E-01   -2.28468E-01   -2.34898E-01   -2.38674E-01   -2.39447E-01   -9.04167E-01   -8.87922E-01   -8.55322E-01   -7.94843E-01   -7.05080E-01   -6.07923E-01   -4.97674E-01   -3.78734E-01   -2.63978E-01   -1.52147E-01   -5.37111E-02    2.63751E-02    7.85909E-02    1.02588E-01    9.94127E-02    7.69368E-02    4.82867E-02    2.32671E-02    8.19103E-03    1.94522E-03    2.85795E-04    6.19782E-07    2.78412E-11    2.71339E-13    9.73337E-01    9.23431E-01    8.61598E-01    7.52818E-01    5.95571E-01    4.29627E-01    2.47765E-01    6.36687E-02   -9.76001E-02   -2.28425E-01   -3.05946E-01   -3.20010E-01   -2.68332E-01   -1.67108E-01   -5.25682E-02    3.31863E-02    1.40752E+01    5.10249E-02    2.40006E-02    6.80064E-03    1.12500E-03    2.25750E-06    7.74307E-11    1.85288E-13  
 -292.7    X     -9.92617E-14   -8.60268E-14   -7.94093E-14   -7.94093E-14   -7.94093E-14    1.95990E+00    1.37323E+00    1.07574E+00    8.46038E-01    6.76106E-01    5.41245E-01    4.36795E-01    3.44506E-01    2.74536E-01    2.11925E-01    1.64052E-01    1.20982E-01    8.82596E-02    5.69963E-02    3.48575E-02   -2.36821E+00   -1.90022E+00   -1.76571E+00   -1.61263E+00   -1.44835E+00   -1.29386E+00   -1.12427E+00   -9.39741E-01   -7.57341E-01   -5.72971E-01   -4.01137E-01   -2.47499E-01   -1.27752E-01   -4.22104E-02    6.35084E-03    2.35227E-02    2.14263E-02    1.23703E-02    4.81585E-03    1.21578E-03    1.85491E-04    4.19642E-07    1.92369E-11    2.05968E-13    3.51647E+00    2.67724E+00    2.43328E+00    2.14479E+00    1.81826E+00    1.50382E+00    1.15797E+00    7.89935E-01    4.38338E-01    1.09665E-01   -1.53453E-01   -3.31124E-01   -3.94404E-01   -3.54821E-01   -2.43517E-01   -1.17019E-01    1.23831E+01    8.40496E-03    9.83607E-03    3.65126E-03    6.82594E-04    1.51186E-06    5.33763E-11    1.58819E-13  
 -292.7    Y     -3.39144E-14   -5.55245E-14   -2.93649E-14   -3.28804E-14   -2.36780E-14    4.60377E-04    3.97952E-04    2.27623E-04    1.01974E-04    1.63842E-05   -4.64262E-05   -9.14874E-05   -1.28215E-04   -1.53621E-04   -1.74006E-04   -1.87597E-04   -1.97812E-04   -2.03806E-04   -2.07545E-04   -2.08587E-04   -2.91905E-04   -6.91604E-04   -7.31945E-04   -7.17107E-04   -6.46013E-04   -5.56174E-04   -4.51901E-04   -3.40668E-04   -2.36332E-04   -1.37310E-04   -5.12742E-05    1.89631E-05    6.56229E-05    8.81241E-05    8.67239E-05    6.78379E-05    4.29134E-05    2.08060E-05    7.35665E-06    1.75128E-06    2.57389E-07    5.55874E-10    2.61014E-14    8.69186E-15    1.02507E-04    7.28407E-04    7.77835E-04    7.37631E-04    6.08462E-04    4.52293E-04    2.77100E-04    1.00722E-04   -5.07168E-05   -1.71769E-04   -2.44499E-04   -2.62550E-04   -2.23549E-04   -1.40772E-04   -4.42533E-05    2.94486E-05    4.10239E-02    4.52575E-05    2.14171E-05    6.09880E-06    1.01189E-06    2.02758E-09    1.33538E-13    2.32645E-14  
 -292.7    Z     -1.25731E-13   -1.19114E-13   -9.26442E-14   -1.05879E-13   -8.60268E-14    7.03159E-01    4.59283E-01    2.70685E-01    1.29323E-01    2.98632E-02   -4.47759E-02   -9.89986E-02   -1.43459E-01   -1.74283E-01   -1.99019E-01   -2.15498E-01   -2.27874E-01   -2.35137E-01   -2.39685E-01   -2.40988E-01   -9.52689E-01   -9.36168E-01   -9.02222E-01   -8.39146E-01   -7.45450E-01   -6.43981E-01   -5.28778E-01   -4.04405E-01   -2.84292E-01   -1.67075E-01   -6.36641E-02    2.08038E-02    7.63448E-02    1.02595E-01    1.00539E-01    7.82521E-02    4.92725E-02    2.37919E-02    8.38716E-03    1.99360E-03    2.93079E-04    6.36036E-07    2.86006E-11    3.16810E-13    1.04156E+00    9.89181E-01    9.24276E-01    8.10059E-01    6.44815E-01    4.70223E-01    2.78552E-01    8.40089E-02   -8.71401E-02   -2.27059E-01   -3.11657E-01   -3.30214E-01   -2.79711E-01   -1.76754E-01   -5.86261E-02    3.08451E-02    1.46813E+01    5.17385E-02    2.44739E-02    6.95533E-03    1.15250E-03    2.31626E-06    7.95020E-11    2.18376E-13  
 -290.7    X     -8.93355E-14   -8.10637E-14   -8.27181E-14   -6.45201E-14   -7.27919E-14    2.06943E+00    1.45511E+00    1.14148E+00    8.99123E-01    7.19746E-01    5.77318E-01    4.66947E-01    3.69371E-01    2.95344E-01    2.29057E-01    1.78332E-01    1.32657E-01    9.79187E-02    6.46907E-02    4.11289E-02   -2.48798E+00   -2.00300E+00   -1.86287E+00   -1.70275E+00   -1.53022E+00   -1.36758E+00   -1.18889E+00   -9.94380E-01   -8.02063E-01   -6.07599E-01   -4.26260E-01   -2.63992E-01   -1.37351E-01   -4.66625E-02    5.09973E-03    2.37595E-02    2.20057E-02    1.27815E-02    4.99022E-03    1.26181E-03    1.92690E-04    4.36349E-07    2.00211E-11    2.29956E-13    3.70026E+00    2.82875E+00    2.57390E+00    2.27134E+00    1.92760E+00    1.59586E+00    1.23059E+00    8.41638E-01    4.69777E-01    1.21787E-01   -1.57303E-01   -3.46485E-01   -4.14943E-01   -3.74678E-01   -2.58227E-01   -1.25067E-01    1.22014E+01    8.10355E-03    1.00723E-02    3.77372E-03    7.07889E-04    1.57167E-06    5.55450E-11    1.60473E-13  
 -290.7    Y      1.15805E-14    3.30872E-15    1.15805E-14    1.98523E-14    9.92617E-15    2.49777E-03    1.91111E-03    1.45851E-03    1.11128E-03    8.59377E-04    6.62555E-04    5.11973E-04    3.80320E-04    2.81528E-04    1.94068E-04    1.27985E-04    6.93300E-05    2.54737E-05   -1.56258E-05   -4.40764E-05   -2.54039E-03   -2.55209E-03   -2.47765E-03   -2.32863E-03   -2.10932E-03   -1.87740E-03   -1.61556E-03   -1.33165E-03   -1.05535E-03   -7.80631E-04   -5.28080E-04   -3.05064E-04   -1.34260E-04   -1.64475E-05    4.46511E-05    5.85666E-05    4.54061E-05    2.45466E-05    9.24153E-06    2.28692E-06    3.44363E-07    7.64967E-10    7.94707E-14    4.64126E-14    3.62401E-03    3.53259E-03    3.36429E-03    3.05793E-03    2.61682E-03    2.15272E-03    1.63297E-03    1.08385E-03    5.68876E-04    9.77005E-05   -2.69539E-04   -5.06810E-04   -5.76184E-04   -4.97261E-04   -3.20723E-04   -1.32843E-04    3.08374E-02    3.01643E-05    2.16348E-05    7.23177E-06    1.29608E-06    2.76955E-09    1.25731E-13    2.97785E-14  
 -290.7    Z     -1.30695E-13   -1.19114E-13   -1.19114E-13   -9.76073E-14   -1.10842E-13    7.13336E-01    4.67239E-01    2.75656E-01    1.31998E-01    3.09007E-02   -4.49830E-02   -1.00122E-01   -1.45344E-01   -1.76707E-01   -2.01883E-01   -2.18663E-01   -2.31275E-01   -2.38685E-01   -2.43338E-01   -2.44686E-01   -9.63642E-01   -9.50192E-01   -9.16359E-01   -8.52766E-01   -7.57822E-01   -6.54808E-01   -5.37783E-01   -4.11412E-01   -2.89347E-01   -1.70203E-01   -6.50659E-02    2.08428E-02    7.73649E-02    1.04122E-01    1.02100E-01    7.94966E-02    5.00685E-02    2.41808E-02    8.52547E-03    2.02671E-03    2.97971E-04    6.46736E-07    2.90975E-11    3.30446E-13    1.05200E+00    1.00417E+00    9.39210E-01    8.23877E-01    6.56319E-01    4.78988E-01    2.84191E-01    8.64103E-02   -8.76447E-02   -2.30017E-01   -3.16206E-01   -3.35300E-01   -2.84180E-01   -1.79697E-01   -5.97093E-02    3.12326E-02    1.58762E+01    5.25607E-02    2.48707E-02    7.06957E-03    1.17161E-03    2.35515E-06    8.08850E-11    2.61389E-13  
