Data type: dB/dt; UNIT: nT/s
Number of stations: 301
Stations (m): -299.7 -297.7 -295.7 -293.7 -291.7 -289.7 -287.7 -285.7 -283.7 -281.7 -279.7 -277.7 -275.7 -273.7 -271.7 -269.7 -267.7 -265.7 -263.7 -261.7 -259.7 -257.7 -255.7 -253.7 -251.7 -249.7 -247.7 -245.7 -243.7 -241.7 -239.7 -237.7 -235.7 -233.7 -231.7 -229.7 -227.7 -225.7 -223.7 -221.7 -219.7 -217.7 -215.7 -213.7 -211.7 -209.7 -207.7 -205.7 -203.7 -201.7 -199.7 -197.7 -195.7 -193.7 -191.7 -189.7 -187.7 -185.7 -183.7 -181.7 -179.7 -177.7 -175.7 -173.7 -171.7 -169.7 -167.7 -165.7 -163.7 -161.7 -159.7 -157.7 -155.7 -153.7 -151.7 -149.7 -147.7 -145.7 -143.7 -141.7 -139.7 -137.7 -135.7 -133.7 -131.7 -129.7 -127.7 -125.7 -123.7 -121.7 -119.7 -117.7 -115.7 -113.7 -111.7 -109.7 -107.7 -105.7 -103.7 -101.7 -99.7 -97.7 -95.7 -93.7 -91.7 -89.7 -87.7 -85.7 -83.7 -81.7 -79.7 -77.7 -75.7 -73.7 -71.7 -69.7 -67.7 -65.7 -63.7 -61.7 -59.7 -57.7 -55.7 -53.7 -51.7 -49.7 -47.7 -45.7 -43.7 -41.7 -39.7 -37.7 -35.7 -33.7 -31.7 -29.7 -27.7 -25.7 -23.7 -21.7 -19.7 -17.7 -15.7 -13.7 -11.7 -9.69999999999999 -7.69999999999999 -5.69999999999999 -3.69999999999999 -1.69999999999999 0.300000000000011 2.30000000000001 4.30000000000001 6.30000000000001 8.30000000000001 10.3 12.3 14.3 16.3 18.3 20.3 22.3 24.3 26.3 28.3 30.3 32.3 34.3 36.3 38.3 40.3 42.3 44.3 46.3 48.3 50.3 52.3 54.3 56.3 58.3 60.3 62.3 64.3 66.3 68.3 70.3 72.3 74.3 76.3 78.3 80.3 82.3 84.3 86.3 88.3 90.3 92.3 94.3 96.3 98.3 100.3 102.3 104.3 106.3 108.3 110.3 112.3 114.3 116.3 118.3 120.3 122.3 124.3 126.3 128.3 130.3 132.3 134.3 136.3 138.3 140.3 142.3 144.3 146.3 148.3 150.3 152.3 154.3 156.3 158.3 160.3 162.3 164.3 166.3 168.3 170.3 172.3 174.3 176.3 178.3 180.3 182.3 184.3 186.3 188.3 190.3 192.3 194.3 196.3 198.3 200.3 202.3 204.3 206.3 208.3 210.3 212.3 214.3 216.3 218.3 220.3 222.3 224.3 226.3 228.3 230.3 232.3 234.3 236.3 238.3 240.3 242.3 244.3 246.3 248.3 250.3 252.3 254.3 256.3 258.3 260.3 262.3 264.3 266.3 268.3 270.3 272.3 274.3 276.3 278.3 280.3 282.3 284.3 286.3 288.3 290.3 292.3 294.3 296.3 298.3 300.3
Channel times (ms):
   1    -1.9500 
   2    -1.8500 
   3    -1.7500 
   4    -1.6500 
   5    -1.5500 
   6    -1.4495 
   7    -1.3500 
   8    -1.2500 
   9    -1.1500 
   10   -1.0500 
   11   -0.9500 
   12   -0.8500 
   13   -0.7500 
   14   -0.6500 
   15   -0.5500 
   16   -0.4500 
   17   -0.3500 
   18   -0.2500 
   19   -0.1500 
   20   -0.0500 
   21    0.0255 
   22    0.0550 
   23    0.0700 
   24    0.0950 
   25    0.1300 
   26    0.1750 
   27    0.2350 
   28    0.3150 
   29    0.4200 
   30    0.5600 
   31    0.7450 
   32    0.9900 
   33    1.3150 
   34    1.7450 
   35    2.3150 
   36    3.0750 
   37    4.0850 
   38    5.4250 
   39    7.2050 
   40    9.5700 
   41    12.6600
   42    22.7300
   43    39.3950
   44    48.1150
   45    48.5255
   46    48.5550
   47    48.5700
   48    48.5950
   49    48.6300
   50    48.6750
   51    48.7350
   52    48.8150
   53    48.9200
   54    49.0600
   55    49.2450
   56    49.4900
   57    49.8150
   58    50.2450
   59    50.8150
   60    51.5750
   61    52.5850
   62    53.9250
   63    55.7050
   64    58.0700
   65    61.1600
   66    71.2300
   67    87.8950
   68    97.1150
EM data:
Station Component      CH1            CH2            CH3            CH4            CH5            CH6            CH7            CH8            CH9           CH10           CH11           CH12           CH13           CH14           CH15           CH16           CH17           CH18           CH19           CH20           CH21           CH22           CH23           CH24           CH25           CH26           CH27           CH28           CH29           CH30           CH31           CH32           CH33           CH34           CH35           CH36           CH37           CH38           CH39           CH40           CH41           CH42           CH43           CH44           CH45           CH46           CH47           CH48           CH49           CH50           CH51           CH52           CH53           CH54           CH55           CH56           CH57           CH58           CH59           CH60           CH61           CH62           CH63           CH64           CH65           CH66           CH67           CH68      
 -298.7    X      2.79835E-12    2.62134E-12    2.44349E-12    2.29294E-12    2.15150E-12    4.72619E+01    4.27667E+01    3.91717E+01    3.59263E+01    3.31902E+01    3.07447E+01    2.86239E+01    2.65336E+01    2.47688E+01    2.30130E+01    2.15200E+01    2.00261E+01    1.87598E+01    1.74036E+01    1.63262E+01   -3.30537E+01   -3.18176E+01   -3.12216E+01   -3.03252E+01   -2.90982E+01   -2.77543E+01   -2.61305E+01   -2.41982E+01   -2.20856E+01   -1.96709E+01   -1.70399E+01   -1.41759E+01   -1.12961E+01   -8.40738E+00   -5.73008E+00   -3.47546E+00   -1.83461E+00   -7.76536E-01   -2.48936E-01   -5.52536E-02   -7.74280E-03   -1.57775E-05   -6.83610E-10   -7.22710E-12    7.11804E+01    6.67243E+01    6.46159E+01    6.14317E+01    5.69302E+01    5.18906E+01    4.57012E+01    3.83416E+01    3.03312E+01    2.15169E+01    1.26703E+01    4.17774E+00   -2.56832E+00   -7.11955E+00   -8.77063E+00   -7.78289E+00   -5.16125E+00   -2.64766E+00   -9.47934E-01   -2.24270E-01   -3.29999E-02   -5.84559E-05   -1.90870E-09   -5.09791E-12  
 -298.7    Y      0.00000E+00   -1.65436E-15    1.65436E-15    3.30872E-15   -2.48154E-15    5.24647E-02    4.73523E-02    4.37376E-02    4.03286E-02    3.73781E-02    3.47020E-02    3.23592E-02    3.00345E-02    2.80620E-02    2.60916E-02    2.44108E-02    2.27246E-02    2.12921E-02    1.97554E-02    1.85328E-02   -3.66616E-02   -3.48780E-02   -3.40509E-02   -3.29772E-02   -3.17252E-02   -3.04496E-02   -2.88870E-02   -2.69450E-02   -2.47412E-02   -2.21532E-02   -1.92756E-02   -1.60943E-02   -1.28558E-02   -9.57721E-03   -6.52079E-03   -3.94203E-03   -2.06944E-03   -8.69129E-04   -2.76016E-04   -6.06452E-05   -8.41774E-06   -1.69103E-08   -7.32468E-13   -1.13737E-14    7.95615E-02    7.39771E-02    7.13857E-02    6.77336E-02    6.29015E-02    5.76200E-02    5.10743E-02    4.31392E-02    3.43553E-02    2.45664E-02    1.46395E-02    5.02596E-03   -2.67954E-03   -7.93340E-03   -9.89223E-03   -8.81936E-03   -6.12693E-03   -2.99376E-03   -1.06484E-03   -2.49463E-04   -3.62812E-05   -6.28822E-08   -2.03735E-12   -7.44463E-15  
 -298.7    Z      4.19711E-12    3.93738E-12    3.67020E-12    3.44273E-12    3.23097E-12    7.18279E+01    6.49134E+01    5.95302E+01    5.46525E+01    5.05267E+01    4.68300E+01    4.36179E+01    4.04470E+01    3.77666E+01    3.50969E+01    3.28248E+01    3.05496E+01    2.86198E+01    2.65522E+01    2.49088E+01   -5.05166E+01   -4.82386E+01   -4.72705E+01   -4.58821E+01   -4.40374E+01   -4.20376E+01   -3.96223E+01   -3.67389E+01   -3.35741E+01   -2.99421E+01   -2.59684E+01   -2.16262E+01   -1.72454E+01   -1.28393E+01   -8.74864E+00   -5.30169E+00   -2.79447E+00   -1.18031E+00   -3.77401E-01   -8.35335E-02   -1.16751E-02   -2.36978E-05   -1.02538E-09   -1.08409E-11    1.08746E+02    1.01327E+02    9.80302E+01    9.31548E+01    8.63466E+01    7.87535E+01    6.94240E+01    5.83107E+01    4.61891E+01    3.28228E+01    1.93782E+01    6.44365E+00   -3.85489E+00   -1.08217E+01   -1.33655E+01   -1.18724E+01   -8.19075E+00   -4.03579E+00   -1.44229E+00   -3.40302E-01   -4.99126E-02   -8.78881E-05   -2.86323E-09   -7.64646E-12  
 -296.7    X      2.83392E-12    2.65980E-12    2.47989E-12    2.32562E-12    2.17900E-12    4.79078E+01    4.33497E+01    3.97046E+01    3.64143E+01    3.36405E+01    3.11614E+01    2.90116E+01    2.68927E+01    2.51040E+01    2.33243E+01    2.18110E+01    2.02969E+01    1.90133E+01    1.76389E+01    1.65469E+01   -3.35078E+01   -3.22548E+01   -3.16504E+01   -3.07413E+01   -2.94970E+01   -2.81340E+01   -2.64874E+01   -2.45280E+01   -2.23860E+01   -1.99379E+01   -1.72707E+01   -1.43676E+01   -1.14487E+01   -8.52086E+00   -5.80743E+00   -3.52243E+00   -1.85945E+00   -7.87081E-01   -2.52329E-01   -5.60094E-02   -7.84911E-03   -1.59953E-05   -6.93064E-10   -7.32665E-12    7.21531E+01    6.76362E+01    6.54987E+01    6.22704E+01    5.77066E+01    5.25974E+01    4.63226E+01    3.88619E+01    3.07418E+01    2.18073E+01    1.28405E+01    4.23283E+00   -2.60426E+00   -7.21661E+00   -8.88956E+00   -7.88819E+00   -5.23023E+00   -2.68349E+00   -9.60790E-01   -2.27323E-01   -3.34511E-02   -5.92617E-05   -1.93509E-09   -5.16512E-12  
 -296.7    Y     -4.96308E-15   -1.86116E-15   -4.34270E-15   -4.13590E-15   -4.75629E-15   -1.03817E-01   -9.35893E-02   -8.54695E-02   -7.82651E-02   -7.22463E-02   -6.68908E-02   -6.22582E-02   -5.76993E-02   -5.38548E-02   -5.00327E-02   -4.67846E-02   -4.35361E-02   -4.07834E-02   -3.78364E-02   -3.54956E-02    7.39168E-02    7.01921E-02    6.88027E-02    6.67685E-02    6.39536E-02    6.08512E-02    5.71409E-02    5.27977E-02    4.81113E-02    4.28000E-02    3.70437E-02    3.07992E-02    2.45352E-02    1.82618E-02    1.24525E-02    7.56044E-03    3.99690E-03    1.69507E-03    5.44601E-04    1.21157E-04    1.70134E-05    3.47733E-08    1.50904E-12    1.67763E-14   -1.57814E-01   -1.46376E-01   -1.41634E-01   -1.34561E-01   -1.24521E-01   -1.13269E-01   -9.95262E-02   -8.33121E-02   -6.57714E-02   -4.65487E-02   -2.73097E-02   -8.87847E-03    5.73271E-03    1.55656E-02    1.91057E-02    1.69325E-02    1.16854E-02    5.76425E-03    2.06723E-03    4.90244E-04    7.23300E-05    1.28736E-07    4.20869E-12    1.03398E-14  
 -296.7    Z      4.27611E-12    4.01203E-12    3.73989E-12    3.50807E-12    3.29156E-12    7.31487E+01    6.61054E+01    6.06229E+01    5.56554E+01    5.14538E+01    4.76891E+01    4.44180E+01    4.11889E+01    3.84592E+01    3.57406E+01    3.34268E+01    3.11099E+01    2.91447E+01    2.70392E+01    2.53656E+01   -5.14489E+01   -4.91265E+01   -4.81401E+01   -4.67257E+01   -4.48466E+01   -4.28098E+01   -4.03499E+01   -3.74132E+01   -3.41902E+01   -3.04913E+01   -2.64445E+01   -2.20227E+01   -1.75615E+01   -1.30747E+01   -8.90907E+00   -5.39897E+00   -2.84578E+00   -1.20200E+00   -3.84348E-01   -8.50734E-02   -1.18906E-02   -2.41361E-05   -1.04435E-09   -1.10384E-11    1.10749E+02    1.03190E+02    9.98315E+01    9.48658E+01    8.79320E+01    8.01991E+01    7.06979E+01    5.93803E+01    4.70359E+01    3.34243E+01    1.97330E+01    6.56128E+00   -3.92597E+00   -1.10204E+01   -1.36106E+01   -1.20901E+01   -8.34066E+00   -4.10986E+00   -1.46879E+00   -3.46564E-01   -5.08325E-02   -8.95127E-05   -2.91622E-09   -7.78915E-12  
 -294.7    X      2.96948E-12    2.78538E-12    2.59595E-12    2.43672E-12    2.28286E-12    5.02003E+01    4.54193E+01    4.15984E+01    3.81500E+01    3.52432E+01    3.26455E+01    3.03929E+01    2.81729E+01    2.62988E+01    2.44343E+01    2.28489E+01    2.12626E+01    1.99179E+01    1.84780E+01    1.73341E+01   -3.51210E+01   -3.38021E+01   -3.31673E+01   -3.22133E+01   -3.09081E+01   -2.94790E+01   -2.77526E+01   -2.56986E+01   -2.34535E+01   -2.08879E+01   -1.80930E+01   -1.50512E+01   -1.19931E+01   -8.92598E+00   -6.08358E+00   -3.69002E+00   -1.94800E+00   -8.24618E-01   -2.64383E-01   -5.86901E-02   -8.22543E-03   -1.67641E-05   -7.26409E-10   -7.68053E-12    7.56141E+01    7.08716E+01    6.86297E+01    6.52449E+01    6.04612E+01    5.51065E+01    4.85309E+01    4.07130E+01    3.22047E+01    2.28436E+01    1.34493E+01    4.43189E+00   -2.73011E+00   -7.56119E+00   -9.31304E+00   -8.26361E+00   -5.48110E+00   -2.81124E+00   -1.00658E+00   -2.38176E-01   -3.50516E-02   -6.21084E-05   -2.02818E-09   -5.41444E-12  
 -294.7    Y      7.03104E-15    6.61744E-15    6.20385E-15    5.79026E-15    4.54949E-15    1.09971E-01    9.92785E-02    9.11522E-02    8.37058E-02    7.73763E-02    7.16978E-02    6.67636E-02    6.18947E-02    5.77813E-02    5.36867E-02    5.02038E-02    4.67178E-02    4.37624E-02    4.05970E-02    3.80819E-02   -7.69520E-02   -7.38989E-02   -7.23539E-02   -7.01562E-02   -6.73381E-02   -6.43433E-02   -6.07120E-02   -5.63252E-02   -5.14706E-02   -4.58805E-02   -3.97637E-02   -3.30898E-02   -2.63699E-02   -1.96237E-02   -1.33689E-02   -8.10250E-03   -4.27256E-03   -1.80598E-03   -5.78064E-04   -1.28105E-04   -1.79262E-05   -3.64530E-08   -1.57867E-12   -1.77844E-14    1.65821E-01    1.55206E-01    1.50064E-01    1.42493E-01    1.32086E-01    1.20565E-01    1.06381E-01    8.94013E-02    7.08206E-02    5.03071E-02    2.96760E-02    9.84549E-03   -5.92349E-03   -1.65736E-02   -2.04489E-02   -1.81538E-02   -1.20976E-02   -6.17010E-03   -2.20627E-03   -5.21097E-04   -7.65335E-05   -1.35130E-07   -4.40805E-12   -1.28213E-14  
 -294.7    Z      4.36669E-12    4.09682E-12    3.81951E-12    3.58335E-12    3.36208E-12    7.46618E+01    6.74711E+01    6.18748E+01    5.68044E+01    5.25157E+01    4.86732E+01    4.53345E+01    4.20386E+01    3.92526E+01    3.64779E+01    3.41163E+01    3.17516E+01    2.97460E+01    2.75970E+01    2.58889E+01   -5.25161E+01   -5.01438E+01   -4.91365E+01   -4.76923E+01   -4.57740E+01   -4.36947E+01   -4.11836E+01   -3.81859E+01   -3.48959E+01   -3.11204E+01   -2.69900E+01   -2.24767E+01   -1.79236E+01   -1.33442E+01   -9.09281E+00   -5.51040E+00   -2.90457E+00   -1.22687E+00   -3.92311E-01   -8.68389E-02   -1.21377E-02   -2.46389E-05   -1.06612E-09   -1.12675E-11    1.13042E+02    1.05324E+02    1.01895E+02    9.68264E+01    8.97486E+01    8.18554E+01    7.21575E+01    6.06057E+01    4.80061E+01    3.41132E+01    2.01394E+01    6.69595E+00   -4.00744E+00   -1.12479E+01   -1.38914E+01   -1.23394E+01   -8.51198E+00   -4.19471E+00   -1.49915E+00   -3.53740E-01   -5.18871E-02   -9.13764E-05   -2.97701E-09   -7.95045E-12  
 -292.7    X      3.02748E-12    2.83930E-12    2.64450E-12    2.48113E-12    2.33017E-12    5.11428E+01    4.62701E+01    4.23762E+01    3.88621E+01    3.59004E+01    3.32537E+01    3.09588E+01    2.86971E+01    2.67879E+01    2.48885E+01    2.32736E+01    2.16577E+01    2.02880E+01    1.88213E+01    1.76561E+01   -3.57831E+01   -3.44398E+01   -3.37930E+01   -3.28204E+01   -3.14899E+01   -3.00331E+01   -2.82734E+01   -2.61799E+01   -2.38919E+01   -2.12776E+01   -1.84299E+01   -1.53309E+01   -1.22158E+01   -9.09159E+00   -6.19647E+00   -3.75857E+00   -1.98427E+00   -8.40014E-01   -2.69337E-01   -5.97943E-02   -8.38075E-03   -1.70824E-05   -7.40227E-10   -7.82678E-12    7.70328E+01    7.22021E+01    6.99179E+01    6.64688E+01    6.15943E+01    5.61380E+01    4.94379E+01    4.14724E+01    3.28041E+01    2.32674E+01    1.36976E+01    4.51233E+00   -2.78252E+00   -7.70279E+00   -9.48658E+00   -8.41727E+00   -5.58184E+00   -2.86354E+00   -1.02535E+00   -2.42634E-01   -3.57106E-02   -6.32859E-05   -2.06676E-09   -5.51812E-12  
 -292.7    Y      3.30872E-15    2.48154E-15    2.89513E-15    4.13590E-16    2.48154E-15    1.71439E-02    1.54862E-02    1.44455E-02    1.33782E-02    1.24193E-02    1.15365E-02    1.07586E-02    9.98434E-03    9.32636E-03    8.66867E-03    8.10748E-03    7.54448E-03    7.06627E-03    6.55335E-03    6.14536E-03   -1.15824E-02   -1.13121E-02   -1.10100E-02   -1.06331E-02   -1.02663E-02   -9.93590E-03   -9.51214E-03   -8.93331E-03   -8.23408E-03   -7.38620E-03   -6.42952E-03   -5.36597E-03   -4.28168E-03   -3.18424E-03   -2.16254E-03   -1.30274E-03   -6.80846E-04   -2.84374E-04   -8.97617E-05   -1.95987E-05   -2.70477E-06   -5.38737E-09   -2.31611E-13   -3.10193E-15    2.55219E-02    2.42255E-02    2.33288E-02    2.20934E-02    2.05752E-02    1.89705E-02    1.69434E-02    1.44026E-02    1.15227E-02    8.27154E-03    4.95288E-03    1.73028E-03   -8.56565E-04   -2.62195E-03   -3.28267E-03   -2.92733E-03   -1.84302E-03   -9.88308E-04   -3.49622E-04   -8.13401E-05   -1.17408E-05   -2.00778E-08   -6.49337E-13   -4.13590E-15  
 -292.7    Z      4.46197E-12    4.18467E-12    3.90233E-12    3.65931E-12    3.43553E-12    7.62896E+01    6.89397E+01    6.32209E+01    5.80398E+01    5.36576E+01    4.97314E+01    4.63200E+01    4.29524E+01    4.01058E+01    3.72707E+01    3.48578E+01    3.24418E+01    3.03925E+01    2.81968E+01    2.64517E+01   -5.36660E+01   -5.12383E+01   -5.02082E+01   -4.87318E+01   -4.67711E+01   -4.46462E+01   -4.20800E+01   -3.90167E+01   -3.56549E+01   -3.17970E+01   -2.75765E+01   -2.29651E+01   -1.83129E+01   -1.36341E+01   -9.29041E+00   -5.63021E+00   -2.96778E+00   -1.25360E+00   -4.00868E-01   -8.87356E-02   -1.24032E-02   -2.51787E-05   -1.08950E-09   -1.15163E-11    1.15512E+02    1.07620E+02    1.04115E+02    9.89344E+01    9.17017E+01    8.36362E+01    7.37267E+01    6.19231E+01    4.90492E+01    3.48540E+01    2.05762E+01    6.84069E+00   -4.09511E+00   -1.14927E+01   -1.41934E+01   -1.26076E+01   -8.69662E+00   -4.28594E+00   -1.53179E+00   -3.61452E-01   -5.30202E-02   -9.33776E-05   -3.04228E-09   -8.12514E-12  
 -290.7    X      3.15652E-12    2.96213E-12    2.75865E-12    2.58990E-12    2.43108E-12    5.33217E+01    4.82367E+01    4.41758E+01    4.05116E+01    3.74235E+01    3.46640E+01    3.22715E+01    2.99137E+01    2.79234E+01    2.59434E+01    2.42599E+01    2.25754E+01    2.11477E+01    1.96189E+01    1.84043E+01   -3.73170E+01   -3.59104E+01   -3.52345E+01   -3.42192E+01   -3.28309E+01   -3.13111E+01   -2.94757E+01   -2.72923E+01   -2.49064E+01   -2.21803E+01   -1.92113E+01   -1.59805E+01   -1.27332E+01   -9.47660E+00   -6.45892E+00   -3.91785E+00   -2.06843E+00   -8.75690E-01   -2.80794E-01   -6.23422E-02   -8.73844E-03   -1.78132E-05   -7.71921E-10   -8.16034E-12    8.03230E+01    7.52769E+01    7.28932E+01    6.92954E+01    6.42118E+01    5.85223E+01    5.15363E+01    4.32314E+01    3.41942E+01    2.42522E+01    1.42762E+01    4.70152E+00   -2.90211E+00   -8.03025E+00   -9.88902E+00   -8.77406E+00   -5.82062E+00   -2.98495E+00   -1.06887E+00   -2.52950E-01   -3.72319E-02   -6.59918E-05   -2.15525E-09   -5.75552E-12  
 -290.7    Y      6.61744E-15    5.58347E-15    1.13737E-14    1.05466E-14    8.27181E-15    1.24172E-01    1.12014E-01    1.02929E-01    9.45837E-02    8.74752E-02    8.10872E-02    7.55291E-02    7.00388E-02    6.53963E-02    6.07717E-02    5.68355E-02    5.28939E-02    4.95507E-02    4.59687E-02    4.31217E-02   -8.72602E-02   -8.32952E-02   -8.14805E-02   -7.89747E-02   -7.58194E-02   -7.24868E-02   -6.84459E-02   -6.35541E-02   -5.81266E-02   -5.18597E-02   -4.49834E-02   -3.74611E-02   -2.98695E-02   -2.22340E-02   -1.51459E-02   -9.17488E-03   -4.83355E-03   -2.04030E-03   -6.51946E-04   -1.44205E-04   -2.01428E-05   -4.08499E-08   -1.76718E-12   -1.85639E-14    1.87973E-01    1.75147E-01    1.69236E-01    1.60655E-01    1.48947E-01    1.36014E-01    1.20084E-01    1.00994E-01    8.00754E-02    5.69482E-02    3.36538E-02    1.12302E-02   -6.62968E-03   -1.87151E-02   -2.31330E-02   -2.05523E-02   -1.39727E-02   -6.98298E-03   -2.49408E-03   -5.88024E-04   -8.61768E-05   -1.51534E-07   -4.93599E-12   -8.06501E-15  
 -290.7    Z      4.53957E-12    4.26494E-12    3.97378E-12    3.72397E-12    3.49070E-12    7.76191E+01    7.01405E+01    6.43227E+01    5.90517E+01    5.45935E+01    5.05990E+01    4.71283E+01    4.37021E+01    4.08059E+01    3.79214E+01    3.54665E+01    3.30083E+01    3.09233E+01    2.86893E+01    2.69138E+01   -5.46029E+01   -5.21299E+01   -5.10814E+01   -4.95791E+01   -4.75844E+01   -4.54227E+01   -4.28122E+01   -3.96960E+01   -3.62759E+01   -3.23512E+01   -2.80574E+01   -2.33658E+01   -1.86326E+01   -1.38723E+01   -9.45275E+00   -5.72864E+00   -3.01968E+00   -1.27553E+00   -4.07884E-01   -9.02892E-02   -1.26204E-02   -2.56199E-05   -1.10859E-09   -1.17180E-11    1.17529E+02    1.09495E+02    1.05928E+02    1.00657E+02    9.32986E+01    8.50929E+01    7.50114E+01    6.30026E+01    4.99048E+01    3.54624E+01    2.09360E+01    6.96092E+00   -4.16578E+00   -1.16927E+01   -1.44409E+01   -1.28276E+01   -8.84955E+00   -4.36085E+00   -1.55858E+00   -3.67776E-01   -5.39483E-02   -9.50134E-05   -3.09559E-09   -8.26850E-12  
