Data type: dB/dt; UNIT: nT/s
Number of stations: 301
Stations (m): -299.7 -297.7 -295.7 -293.7 -291.7 -289.7 -287.7 -285.7 -283.7 -281.7 -279.7 -277.7 -275.7 -273.7 -271.7 -269.7 -267.7 -265.7 -263.7 -261.7 -259.7 -257.7 -255.7 -253.7 -251.7 -249.7 -247.7 -245.7 -243.7 -241.7 -239.7 -237.7 -235.7 -233.7 -231.7 -229.7 -227.7 -225.7 -223.7 -221.7 -219.7 -217.7 -215.7 -213.7 -211.7 -209.7 -207.7 -205.7 -203.7 -201.7 -199.7 -197.7 -195.7 -193.7 -191.7 -189.7 -187.7 -185.7 -183.7 -181.7 -179.7 -177.7 -175.7 -173.7 -171.7 -169.7 -167.7 -165.7 -163.7 -161.7 -159.7 -157.7 -155.7 -153.7 -151.7 -149.7 -147.7 -145.7 -143.7 -141.7 -139.7 -137.7 -135.7 -133.7 -131.7 -129.7 -127.7 -125.7 -123.7 -121.7 -119.7 -117.7 -115.7 -113.7 -111.7 -109.7 -107.7 -105.7 -103.7 -101.7 -99.7 -97.7 -95.7 -93.7 -91.7 -89.7 -87.7 -85.7 -83.7 -81.7 -79.7 -77.7 -75.7 -73.7 -71.7 -69.7 -67.7 -65.7 -63.7 -61.7 -59.7 -57.7 -55.7 -53.7 -51.7 -49.7 -47.7 -45.7 -43.7 -41.7 -39.7 -37.7 -35.7 -33.7 -31.7 -29.7 -27.7 -25.7 -23.7 -21.7 -19.7 -17.7 -15.7 -13.7 -11.7 -9.69999999999999 -7.69999999999999 -5.69999999999999 -3.69999999999999 -1.69999999999999 0.300000000000011 2.30000000000001 4.30000000000001 6.30000000000001 8.30000000000001 10.3 12.3 14.3 16.3 18.3 20.3 22.3 24.3 26.3 28.3 30.3 32.3 34.3 36.3 38.3 40.3 42.3 44.3 46.3 48.3 50.3 52.3 54.3 56.3 58.3 60.3 62.3 64.3 66.3 68.3 70.3 72.3 74.3 76.3 78.3 80.3 82.3 84.3 86.3 88.3 90.3 92.3 94.3 96.3 98.3 100.3 102.3 104.3 106.3 108.3 110.3 112.3 114.3 116.3 118.3 120.3 122.3 124.3 126.3 128.3 130.3 132.3 134.3 136.3 138.3 140.3 142.3 144.3 146.3 148.3 150.3 152.3 154.3 156.3 158.3 160.3 162.3 164.3 166.3 168.3 170.3 172.3 174.3 176.3 178.3 180.3 182.3 184.3 186.3 188.3 190.3 192.3 194.3 196.3 198.3 200.3 202.3 204.3 206.3 208.3 210.3 212.3 214.3 216.3 218.3 220.3 222.3 224.3 226.3 228.3 230.3 232.3 234.3 236.3 238.3 240.3 242.3 244.3 246.3 248.3 250.3 252.3 254.3 256.3 258.3 260.3 262.3 264.3 266.3 268.3 270.3 272.3 274.3 276.3 278.3 280.3 282.3 284.3 286.3 288.3 290.3 292.3 294.3 296.3 298.3 300.3
Channel times (ms):
   1    -1.9500 
   2    -1.8500 
   3    -1.7500 
   4    -1.6500 
   5    -1.5500 
   6    -1.4495 
   7    -1.3500 
   8    -1.2500 
   9    -1.1500 
   10   -1.0500 
   11   -0.9500 
   12   -0.8500 
   13   -0.7500 
   14   -0.6500 
   15   -0.5500 
   16   -0.4500 
   17   -0.3500 
   18   -0.2500 
   19   -0.1500 
   20   -0.0500 
   21    0.0255 
   22    0.0550 
   23    0.0700 
   24    0.0950 
   25    0.1300 
   26    0.1750 
   27    0.2350 
   28    0.3150 
   29    0.4200 
   30    0.5600 
   31    0.7450 
   32    0.9900 
   33    1.3150 
   34    1.7450 
   35    2.3150 
   36    3.0750 
   37    4.0850 
   38    5.4250 
   39    7.2050 
   40    9.5700 
   41    12.6600
   42    22.7300
   43    39.3950
   44    48.1150
   45    48.5255
   46    48.5550
   47    48.5700
   48    48.5950
   49    48.6300
   50    48.6750
   51    48.7350
   52    48.8150
   53    48.9200
   54    49.0600
   55    49.2450
   56    49.4900
   57    49.8150
   58    50.2450
   59    50.8150
   60    51.5750
   61    52.5850
   62    53.9250
   63    55.7050
   64    58.0700
   65    61.1600
   66    71.2300
   67    87.8950
   68    97.1150
EM data:
Station Component      CH1            CH2            CH3            CH4            CH5            CH6            CH7            CH8            CH9           CH10           CH11           CH12           CH13           CH14           CH15           CH16           CH17           CH18           CH19           CH20           CH21           CH22           CH23           CH24           CH25           CH26           CH27           CH28           CH29           CH30           CH31           CH32           CH33           CH34           CH35           CH36           CH37           CH38           CH39           CH40           CH41           CH42           CH43           CH44           CH45           CH46           CH47           CH48           CH49           CH50           CH51           CH52           CH53           CH54           CH55           CH56           CH57           CH58           CH59           CH60           CH61           CH62           CH63           CH64           CH65           CH66           CH67           CH68      
 -298.7    X      1.64237E-12    1.53990E-12    1.43412E-12    1.34520E-12    1.25980E-12    8.46222E+01    7.48182E+01    6.74069E+01    6.08627E+01    5.54501E+01    5.06955E+01    4.66387E+01    4.27014E+01    3.94261E+01    3.62133E+01    3.35186E+01    3.08576E+01    2.86311E+01    2.62774E+01    2.44304E+01   -6.49733E+01   -6.15483E+01   -6.00848E+01   -5.79870E+01   -5.52118E+01   -5.22281E+01   -4.86652E+01   -4.44757E+01   -3.99614E+01   -3.48963E+01   -2.95091E+01   -2.38211E+01   -1.83171E+01   -1.30506E+01   -8.44141E+00   -4.81651E+00   -2.37382E+00   -9.28275E-01   -2.72721E-01   -5.50669E-02   -7.00281E-03   -1.16627E-05   -4.25279E-10   -4.28852E-12    1.29052E+02    1.19196E+02    1.14859E+02    1.08488E+02    9.96897E+01    8.99919E+01    7.82328E+01    6.44396E+01    4.96688E+01    3.37281E+01    1.81252E+01    3.64714E+00   -7.27128E+00   -1.39452E+01   -1.54841E+01   -1.27713E+01   -7.56676E+00   -3.73338E+00   -1.21695E+00   -2.58187E-01   -3.37049E-02   -4.59322E-05   -1.21260E-09   -3.01507E-12  
 -298.7    Y     -1.44757E-15   -6.20385E-16   -1.24077E-15    1.24077E-15   -3.92911E-15    1.18055E-01    1.03777E-01    9.35682E-02    8.46464E-02    7.73069E-02    7.08690E-02    6.53717E-02    6.00258E-02    5.55673E-02    5.11808E-02    4.74902E-02    4.38342E-02    4.07653E-02    3.75104E-02    3.49482E-02   -9.09079E-02   -8.48886E-02   -8.25795E-02   -7.94698E-02   -7.55437E-02   -7.14115E-02   -6.65290E-02   -6.08483E-02   -5.47852E-02   -4.80201E-02   -4.08285E-02   -3.32016E-02   -2.57561E-02   -1.85445E-02   -1.21397E-02   -7.01928E-03   -3.50925E-03   -1.39440E-03   -4.16787E-04   -8.57159E-05   -1.11031E-05   -1.91798E-08   -7.21405E-13   -8.47860E-15    1.81766E-01    1.66037E-01    1.59594E-01    1.50453E-01    1.38128E-01    1.24682E-01    1.08450E-01    8.94866E-02    6.92346E-02    4.73897E-02    2.59522E-02    5.93341E-03   -9.34088E-03   -1.89037E-02   -2.14099E-02   -1.79320E-02   -1.18970E-02   -5.41284E-03   -1.79865E-03   -3.90052E-04   -5.21399E-05   -7.46873E-08   -2.04562E-12   -2.89513E-15  
 -298.7    Z      2.33927E-12    2.19120E-12    2.04272E-12    1.91203E-12    1.79374E-12    9.76824E+01    8.68910E+01    7.86055E+01    7.12341E+01    6.51010E+01    5.96868E+01    5.50472E+01    5.05267E+01    4.67529E+01    4.30389E+01    3.99142E+01    3.68198E+01    3.42236E+01    3.14717E+01    2.93069E+01   -7.36191E+01   -7.00139E+01   -6.84441E+01   -6.61728E+01   -6.31443E+01   -5.98692E+01   -5.59396E+01   -5.12951E+01   -4.62626E+01   -4.05806E+01   -3.44937E+01   -2.80153E+01   -2.16895E+01   -1.55759E+01   -1.01660E+01   -5.85932E+00   -2.91961E+00   -1.15596E+00   -3.44281E-01   -7.05754E-02   -9.12197E-03   -1.57795E-05   -5.98255E-10   -6.10211E-12    1.48513E+02    1.37671E+02    1.32834E+02    1.25682E+02    1.15748E+02    1.04748E+02    9.13557E+01    7.55806E+01    5.86080E+01    4.01944E+01    2.20563E+01    5.09085E+00   -7.85278E+00   -1.59371E+01   -1.80324E+01   -1.50717E+01   -1.01000E+01   -4.52099E+00   -1.49614E+00   -3.22985E-01   -4.29917E-02   -6.13896E-05   -1.69715E-09   -4.28397E-12  
 -296.7    X      1.69572E-12    1.58653E-12    1.47900E-12    1.38470E-12    1.29702E-12    8.80293E+01    7.78191E+01    7.01023E+01    6.32898E+01    5.76561E+01    5.27081E+01    4.84867E+01    4.43902E+01    4.09829E+01    3.76408E+01    3.48379E+01    3.20703E+01    2.97548E+01    2.73072E+01    2.53866E+01   -6.76195E+01   -6.40522E+01   -6.25278E+01   -6.03422E+01   -5.74510E+01   -5.43428E+01   -5.06316E+01   -4.62683E+01   -4.15676E+01   -3.62942E+01   -3.06866E+01   -2.47674E+01   -1.90410E+01   -1.35633E+01   -8.77079E+00   -5.00302E+00   -2.46498E+00   -9.63591E-01   -2.82991E-01   -5.71172E-02   -7.26042E-03   -1.20798E-05   -4.40066E-10   -4.44672E-12    1.34254E+02    1.23994E+02    1.19480E+02    1.12848E+02    1.03690E+02    9.35960E+01    8.13584E+01    6.70057E+01    5.16377E+01    3.50551E+01    1.88268E+01    3.77197E+00   -7.57764E+00   -1.45107E+01   -1.61036E+01   -1.32773E+01   -7.85912E+00   -3.87848E+00   -1.26372E+00   -2.67979E-01   -3.49648E-02   -4.75902E-05   -1.25490E-09   -3.12343E-12  
 -296.7    Y     -2.97785E-14   -3.30872E-14   -3.63959E-14   -3.47416E-14   -3.63959E-14    1.77016E-01    1.55415E-01    1.39770E-01    1.26113E-01    1.14899E-01    1.05086E-01    9.67299E-02    8.86272E-02    8.18885E-02    7.52770E-02    6.97289E-02    6.42468E-02    5.96563E-02    5.47994E-02    5.09846E-02   -1.37346E-01   -1.28692E-01   -1.25261E-01   -1.20549E-01   -1.14514E-01   -1.08131E-01   -1.00583E-01   -9.17964E-02   -8.24216E-02   -7.19821E-02   -6.09299E-02   -4.92801E-02   -3.79963E-02   -2.71668E-02   -1.76464E-02   -1.01176E-02   -5.01354E-03   -1.97284E-03   -5.83643E-04   -1.18732E-04   -1.52117E-05   -2.56817E-08   -9.63045E-13   -2.68834E-14    2.71999E-01    2.49028E-01    2.39420E-01    2.25650E-01    2.06972E-01    1.86568E-01    1.61956E-01    1.33238E-01    1.02627E-01    6.97041E-02    3.75378E-02    7.69122E-03   -1.48592E-02   -2.87190E-02   -3.20182E-02   -2.65163E-02   -1.65035E-02   -7.83276E-03   -2.57122E-03   -5.50125E-04   -7.24941E-05   -1.00729E-07   -2.67014E-12    1.15805E-14  
 -296.7    Z      2.39221E-12    2.24414E-12    2.08698E-12    1.95711E-12    1.83303E-12    1.00342E+02    8.92511E+01    8.07367E+01    7.31622E+01    6.68605E+01    6.12978E+01    5.65311E+01    5.18870E+01    4.80102E+01    4.41949E+01    4.09852E+01    3.78067E+01    3.51400E+01    3.23136E+01    3.00902E+01   -7.56410E+01   -7.19342E+01   -7.03204E+01   -6.79856E+01   -6.48727E+01   -6.15065E+01   -5.74676E+01   -5.26942E+01   -4.75223E+01   -4.16833E+01   -3.54287E+01   -2.87723E+01   -2.22735E+01   -1.59935E+01   -1.04372E+01   -6.01469E+00   -2.99652E+00   -1.18618E+00   -3.53202E-01   -7.23859E-02   -9.35342E-03   -1.61694E-05   -6.12635E-10   -6.25442E-12    1.52561E+02    1.41419E+02    1.36448E+02    1.29100E+02    1.18892E+02    1.07590E+02    9.38312E+01    7.76246E+01    6.01886E+01    4.12733E+01    2.26424E+01    5.21767E+00   -8.07441E+00   -1.63740E+01   -1.85221E+01   -1.54782E+01   -1.03673E+01   -4.64113E+00   -1.53554E+00   -3.31400E-01   -4.40977E-02   -6.29196E-05   -1.73808E-09   -4.39564E-12  
 -294.7    X      1.76851E-12    1.65602E-12    1.53856E-12    1.44591E-12    1.35409E-12    9.25181E+01    8.17785E+01    7.36622E+01    6.64981E+01    6.05746E+01    5.53724E+01    5.09347E+01    4.66286E+01    4.30472E+01    3.95347E+01    3.65891E+01    3.36807E+01    3.12476E+01    2.86759E+01    2.66580E+01   -7.10923E+01   -6.73405E+01   -6.57367E+01   -6.34372E+01   -6.03952E+01   -5.71249E+01   -5.32205E+01   -4.86305E+01   -4.36860E+01   -3.81400E+01   -3.22434E+01   -2.60201E+01   -2.00009E+01   -1.42442E+01   -9.20913E+00   -5.25174E+00   -2.58682E+00   -1.01091E+00   -2.96789E-01   -5.98802E-02   -7.60869E-03   -1.26480E-05   -4.60336E-10   -4.63304E-12    1.41103E+02    1.30316E+02    1.25569E+02    1.18596E+02    1.08966E+02    9.83538E+01    8.54879E+01    7.03996E+01    5.42458E+01    3.68171E+01    1.97634E+01    3.94561E+00   -7.97593E+00   -1.52546E+01   -1.69219E+01   -1.39476E+01   -8.25672E+00   -4.07176E+00   -1.32620E+00   -2.81110E-01   -3.66607E-02   -4.98432E-05   -1.31288E-09   -3.24710E-12  
 -294.7    Y      6.20385E-15    7.85822E-15    9.92617E-15    4.13590E-15    8.68540E-15    4.08483E-01    3.60012E-01    3.24017E-01    2.92409E-01    2.66359E-01    2.43523E-01    2.24060E-01    2.05182E-01    1.89484E-01    1.74086E-01    1.61170E-01    1.48415E-01    1.37740E-01    1.26453E-01    1.17593E-01   -3.15179E-01   -2.97257E-01   -2.89830E-01   -2.79365E-01   -2.65703E-01   -2.51114E-01   -2.33768E-01   -2.13470E-01   -1.91702E-01   -1.67370E-01   -1.41554E-01   -1.14329E-01   -8.79875E-02   -6.27622E-02   -4.06544E-02   -2.32354E-02   -1.14731E-02   -4.49631E-03   -1.32417E-03   -2.68054E-04   -3.41718E-05   -5.71361E-08   -2.08884E-12   -2.17135E-14    6.24846E-01    5.75082E-01    5.53622E-01    5.22407E-01    4.79612E-01    4.32622E-01    3.75785E-01    3.09286E-01    2.38241E-01    1.61709E-01    8.68868E-02    1.74909E-02   -3.48536E-02   -6.68908E-02   -7.43367E-02   -6.13833E-02   -3.82758E-02   -1.80046E-02   -5.88288E-03   -1.25171E-03   -1.63926E-04   -2.24768E-07   -5.95074E-12   -1.84048E-14  
 -294.7    Z      2.46293E-12    2.30411E-12    2.14653E-12    2.01832E-12    1.88390E-12    1.03651E+02    9.21894E+01    8.33914E+01    7.55650E+01    6.90540E+01    6.33067E+01    5.83821E+01    5.35843E+01    4.95793E+01    4.56381E+01    4.23224E+01    3.90392E+01    3.62847E+01    3.33653E+01    3.10688E+01   -7.81516E+01   -7.43193E+01   -7.26512E+01   -7.02381E+01   -6.70208E+01   -6.35420E+01   -5.93680E+01   -5.44350E+01   -4.90905E+01   -4.30568E+01   -3.65939E+01   -2.97164E+01   -2.30024E+01   -1.65151E+01   -1.07762E+01   -6.20906E+00   -3.09281E+00   -1.22404E+00   -3.64390E-01   -7.46586E-02   -9.64424E-03   -1.66603E-05   -6.30759E-10   -6.43071E-12    1.57596E+02    1.46082E+02    1.40945E+02    1.33353E+02    1.22806E+02    1.11130E+02    9.69153E+01    8.01725E+01    6.21602E+01    4.26206E+01    2.33760E+01    5.37877E+00   -8.34826E+00   -1.69173E+01   -1.91321E+01   -1.59851E+01   -1.07038E+01   -4.79136E+00   -1.58486E+00   -3.41945E-01   -4.54857E-02   -6.48447E-05   -1.78969E-09   -4.51227E-12  
 -292.7    X      1.83138E-12    1.71557E-12    1.59563E-12    1.49720E-12    1.40621E-12    9.55955E+01    8.44941E+01    7.61046E+01    6.86999E+01    6.25779E+01    5.72017E+01    5.26158E+01    4.81661E+01    4.44654E+01    4.08361E+01    3.77926E+01    3.47877E+01    3.22739E+01    2.96170E+01    2.75323E+01   -7.34696E+01   -6.95923E+01   -6.79344E+01   -6.55571E+01   -6.24120E+01   -5.90310E+01   -5.49945E+01   -5.02495E+01   -4.51384E+01   -3.94058E+01   -3.33114E+01   -2.68801E+01   -2.06601E+01   -1.47123E+01   -9.51070E+00   -5.42306E+00   -2.67085E+00   -1.04359E+00   -3.06332E-01   -6.17942E-02   -7.85038E-03   -1.30440E-05   -4.74519E-10   -4.76830E-12    1.45797E+02    1.34650E+02    1.29745E+02    1.22538E+02    1.12585E+02    1.01618E+02    8.83213E+01    7.27291E+01    5.60366E+01    3.80280E+01    2.04082E+01    4.06686E+00   -8.24752E+00   -1.57641E+01   -1.74831E+01   -1.44080E+01   -8.53325E+00   -4.20482E+00   -1.36929E+00   -2.90181E-01   -3.78348E-02   -5.14109E-05   -1.35344E-09   -3.34264E-12  
 -292.7    Y      8.27181E-16   -1.65436E-15    0.00000E+00   -8.27181E-16    3.30872E-15    3.71505E-02    2.96569E-02    2.51672E-02    2.16261E-02    1.89472E-02    1.67508E-02    1.49792E-02    1.33394E-02    1.20305E-02    1.07925E-02    9.78777E-03    8.82483E-03    8.04138E-03    7.23486E-03    6.61721E-03   -3.48569E-02   -3.06618E-02   -2.91937E-02   -2.73469E-02   -2.51779E-02   -2.30274E-02   -2.06251E-02   -1.80132E-02   -1.54324E-02   -1.27855E-02   -1.02182E-02   -7.74615E-03   -5.56774E-03   -3.67425E-03   -2.17777E-03   -1.12502E-03   -4.95876E-04   -1.69780E-04   -4.25636E-05   -7.02600E-06   -6.82195E-07   -2.80426E-10    2.19203E-14   -6.20385E-15    6.02469E-02    5.17370E-02    4.86575E-02    4.46048E-02    3.95517E-02    3.43678E-02    2.84529E-02    2.19707E-02    1.55254E-02    9.09527E-03    3.32819E-03   -1.50141E-03   -4.63635E-03   -6.02273E-03   -5.65318E-03   -4.11347E-03    5.50544E-04   -9.36421E-04   -2.61725E-04   -4.58439E-05   -4.67030E-06   -2.21988E-09    5.04580E-14   -7.44463E-15  
 -292.7    Z      2.48816E-12    2.33430E-12    2.17218E-12    2.03321E-12    1.90748E-12    1.04547E+02    9.29917E+01    8.41208E+01    7.62288E+01    6.96627E+01    6.38664E+01    5.88996E+01    5.40604E+01    5.00207E+01    4.60452E+01    4.27007E+01    3.93887E+01    3.66100E+01    3.36649E+01    3.13482E+01   -7.88140E+01   -7.49514E+01   -7.32701E+01   -7.08377E+01   -6.75947E+01   -6.40878E+01   -5.98799E+01   -5.49065E+01   -4.95176E+01   -4.34334E+01   -3.69158E+01   -2.99795E+01   -2.32072E+01   -1.66632E+01   -1.08735E+01   -6.26548E+00   -3.12109E+00   -1.23530E+00   -3.67762E-01   -7.53534E-02   -9.73441E-03   -1.68172E-05   -6.36718E-10   -6.48241E-12    1.58954E+02    1.47345E+02    1.42165E+02    1.34510E+02    1.23875E+02    1.12100E+02    9.77644E+01    8.08785E+01    6.27113E+01    4.30025E+01    2.35898E+01    5.43393E+00   -8.41561E+00   -1.70627E+01   -1.92998E+01   -1.61269E+01   -1.08094E+01   -4.83470E+00   -1.59933E+00   -3.45094E-01   -4.59079E-02   -6.54540E-05   -1.80660E-09   -4.55777E-12  
 -290.7    X      1.88308E-12    1.77182E-12    1.64692E-12    1.54972E-12    1.43805E-12    9.90095E+01    8.75011E+01    7.88054E+01    7.11319E+01    6.47883E+01    5.92183E+01    5.44675E+01    4.98582E+01    4.60252E+01    4.22663E+01    3.91144E+01    3.60027E+01    3.33997E+01    3.06487E+01    2.84903E+01   -7.61213E+01   -7.21015E+01   -7.03825E+01   -6.79173E+01   -6.46560E+01   -6.11502E+01   -5.69651E+01   -5.20460E+01   -4.67480E+01   -4.08068E+01   -3.44915E+01   -2.78283E+01   -2.13855E+01   -1.52260E+01   -9.84067E+00   -5.60986E+00   -2.76214E+00   -1.07895E+00   -3.16611E-01   -6.38459E-02   -8.10811E-03   -1.34611E-05   -4.89318E-10   -4.94390E-12    1.51008E+02    1.39458E+02    1.34375E+02    1.26906E+02    1.16593E+02    1.05229E+02    9.14533E+01    7.53004E+01    5.80095E+01    3.93576E+01    2.11111E+01    4.19178E+00   -8.55467E+00   -1.63309E+01   -1.81040E+01   -1.49150E+01   -8.82794E+00   -4.35016E+00   -1.41612E+00   -2.99984E-01   -3.90956E-02   -5.30692E-05   -1.39574E-09   -3.47571E-12  
 -290.7    Y      4.13590E-16    6.61744E-15    6.41065E-15    1.24077E-15    1.65436E-15    3.21084E-01    2.82462E-01    2.54052E-01    2.29154E-01    2.08661E-01    1.90711E-01    1.75421E-01    1.60597E-01    1.48274E-01    1.36190E-01    1.26056E-01    1.16051E-01    1.07679E-01    9.88297E-02    9.18848E-02   -2.48900E-01   -2.34124E-01   -2.28119E-01   -2.19741E-01   -2.08884E-01   -1.97330E-01   -1.83616E-01   -1.67593E-01   -1.50436E-01   -1.31281E-01   -1.10977E-01   -8.95788E-02   -6.88872E-02   -4.90871E-02   -3.17529E-02   -1.81169E-02   -8.92815E-03   -3.49110E-03   -1.02566E-03   -2.07091E-04   -2.63280E-05   -4.37326E-08   -1.57844E-12   -5.04063E-15    4.92098E-01    4.51892E-01    4.34782E-01    4.10038E-01    3.76256E-01    3.39238E-01    2.94511E-01    2.42235E-01    1.86439E-01    1.26387E-01    6.77242E-02    1.33607E-02   -2.75965E-02   -5.26034E-02   -5.83243E-02   -4.80776E-02   -2.92921E-02   -1.40460E-02   -4.57767E-03   -9.71086E-04   -1.26754E-04   -1.72412E-07   -4.51196E-12    9.20238E-15  
 -290.7    Z      2.57129E-12    2.41661E-12    2.24125E-12    2.11469E-12    1.95794E-12    1.08376E+02    9.63858E+01    8.71835E+01    7.89977E+01    7.21881E+01    6.61774E+01    6.10273E+01    5.60100E+01    5.18220E+01    4.77008E+01    4.42339E+01    4.08010E+01    3.79211E+01    3.48688E+01    3.24679E+01   -8.17341E+01   -7.77232E+01   -7.59778E+01   -7.34531E+01   -7.00873E+01   -6.64480E+01   -6.20815E+01   -5.69211E+01   -5.13303E+01   -4.50188E+01   -3.82588E+01   -3.10657E+01   -2.40442E+01   -1.72607E+01   -1.12608E+01   -6.48703E+00   -3.23054E+00   -1.27820E+00   -3.80397E-01   -7.79109E-02   -1.00604E-02   -1.73629E-05   -6.56714E-10   -6.69623E-12    1.64785E+02    1.52740E+02    1.47367E+02    1.39427E+02    1.28397E+02    1.16186E+02    1.01321E+02    8.38128E+01    6.49778E+01    4.45468E+01    2.44255E+01    5.61024E+00   -8.73854E+00   -1.76929E+01   -2.00036E+01   -1.67097E+01   -1.11858E+01   -5.00616E+00   -1.65540E+00   -3.57032E-01   -4.74716E-02   -6.75999E-05   -1.86358E-09   -4.71038E-12  
