Data type: dB/dt; UNIT: nT/s
Number of stations: 301
Stations (m): -299.7 -297.7 -295.7 -293.7 -291.7 -289.7 -287.7 -285.7 -283.7 -281.7 -279.7 -277.7 -275.7 -273.7 -271.7 -269.7 -267.7 -265.7 -263.7 -261.7 -259.7 -257.7 -255.7 -253.7 -251.7 -249.7 -247.7 -245.7 -243.7 -241.7 -239.7 -237.7 -235.7 -233.7 -231.7 -229.7 -227.7 -225.7 -223.7 -221.7 -219.7 -217.7 -215.7 -213.7 -211.7 -209.7 -207.7 -205.7 -203.7 -201.7 -199.7 -197.7 -195.7 -193.7 -191.7 -189.7 -187.7 -185.7 -183.7 -181.7 -179.7 -177.7 -175.7 -173.7 -171.7 -169.7 -167.7 -165.7 -163.7 -161.7 -159.7 -157.7 -155.7 -153.7 -151.7 -149.7 -147.7 -145.7 -143.7 -141.7 -139.7 -137.7 -135.7 -133.7 -131.7 -129.7 -127.7 -125.7 -123.7 -121.7 -119.7 -117.7 -115.7 -113.7 -111.7 -109.7 -107.7 -105.7 -103.7 -101.7 -99.7 -97.7 -95.7 -93.7 -91.7 -89.7 -87.7 -85.7 -83.7 -81.7 -79.7 -77.7 -75.7 -73.7 -71.7 -69.7 -67.7 -65.7 -63.7 -61.7 -59.7 -57.7 -55.7 -53.7 -51.7 -49.7 -47.7 -45.7 -43.7 -41.7 -39.7 -37.7 -35.7 -33.7 -31.7 -29.7 -27.7 -25.7 -23.7 -21.7 -19.7 -17.7 -15.7 -13.7 -11.7 -9.69999999999999 -7.69999999999999 -5.69999999999999 -3.69999999999999 -1.69999999999999 0.300000000000011 2.30000000000001 4.30000000000001 6.30000000000001 8.30000000000001 10.3 12.3 14.3 16.3 18.3 20.3 22.3 24.3 26.3 28.3 30.3 32.3 34.3 36.3 38.3 40.3 42.3 44.3 46.3 48.3 50.3 52.3 54.3 56.3 58.3 60.3 62.3 64.3 66.3 68.3 70.3 72.3 74.3 76.3 78.3 80.3 82.3 84.3 86.3 88.3 90.3 92.3 94.3 96.3 98.3 100.3 102.3 104.3 106.3 108.3 110.3 112.3 114.3 116.3 118.3 120.3 122.3 124.3 126.3 128.3 130.3 132.3 134.3 136.3 138.3 140.3 142.3 144.3 146.3 148.3 150.3 152.3 154.3 156.3 158.3 160.3 162.3 164.3 166.3 168.3 170.3 172.3 174.3 176.3 178.3 180.3 182.3 184.3 186.3 188.3 190.3 192.3 194.3 196.3 198.3 200.3 202.3 204.3 206.3 208.3 210.3 212.3 214.3 216.3 218.3 220.3 222.3 224.3 226.3 228.3 230.3 232.3 234.3 236.3 238.3 240.3 242.3 244.3 246.3 248.3 250.3 252.3 254.3 256.3 258.3 260.3 262.3 264.3 266.3 268.3 270.3 272.3 274.3 276.3 278.3 280.3 282.3 284.3 286.3 288.3 290.3 292.3 294.3 296.3 298.3 300.3
Channel times (ms):
   1    -1.9500 
   2    -1.8500 
   3    -1.7500 
   4    -1.6500 
   5    -1.5500 
   6    -1.4495 
   7    -1.3500 
   8    -1.2500 
   9    -1.1500 
   10   -1.0500 
   11   -0.9500 
   12   -0.8500 
   13   -0.7500 
   14   -0.6500 
   15   -0.5500 
   16   -0.4500 
   17   -0.3500 
   18   -0.2500 
   19   -0.1500 
   20   -0.0500 
   21    0.0255 
   22    0.0550 
   23    0.0700 
   24    0.0950 
   25    0.1300 
   26    0.1750 
   27    0.2350 
   28    0.3150 
   29    0.4200 
   30    0.5600 
   31    0.7450 
   32    0.9900 
   33    1.3150 
   34    1.7450 
   35    2.3150 
   36    3.0750 
   37    4.0850 
   38    5.4250 
   39    7.2050 
   40    9.5700 
   41    12.6600
   42    22.7300
   43    39.3950
   44    48.1150
   45    48.5255
   46    48.5550
   47    48.5700
   48    48.5950
   49    48.6300
   50    48.6750
   51    48.7350
   52    48.8150
   53    48.9200
   54    49.0600
   55    49.2450
   56    49.4900
   57    49.8150
   58    50.2450
   59    50.8150
   60    51.5750
   61    52.5850
   62    53.9250
   63    55.7050
   64    58.0700
   65    61.1600
   66    71.2300
   67    87.8950
   68    97.1150
EM data:
Station Component      CH1            CH2            CH3            CH4            CH5            CH6            CH7            CH8            CH9           CH10           CH11           CH12           CH13           CH14           CH15           CH16           CH17           CH18           CH19           CH20           CH21           CH22           CH23           CH24           CH25           CH26           CH27           CH28           CH29           CH30           CH31           CH32           CH33           CH34           CH35           CH36           CH37           CH38           CH39           CH40           CH41           CH42           CH43           CH44           CH45           CH46           CH47           CH48           CH49           CH50           CH51           CH52           CH53           CH54           CH55           CH56           CH57           CH58           CH59           CH60           CH61           CH62           CH63           CH64           CH65           CH66           CH67           CH68      
 -298.7    X      8.67362E-10    2.60209E-09    8.67362E-10    2.60209E-09    3.46945E-09    5.91411E+01    5.11926E+01    4.54693E+01    4.05260E+01    3.65109E+01    3.30387E+01    3.01179E+01    2.73199E+01    2.50206E+01    2.27908E+01    2.09407E+01    1.91323E+01    1.76341E+01    1.60655E+01    1.48457E+01   -4.82838E+01   -4.50847E+01   -4.38040E+01   -4.20233E+01   -3.97260E+01   -3.72976E+01   -3.44356E+01   -3.11168E+01   -2.75966E+01   -2.37196E+01   -1.96874E+01   -1.55411E+01   -1.16510E+01   -8.05892E+00   -5.04008E+00   -2.77090E+00   -1.31297E+00   -4.92029E-01   -1.38338E-01   -2.67070E-02   -3.25139E-03   -4.96813E-06   -1.59136E-10    3.38813E-12    9.12565E+01    8.31238E+01    7.97297E+01    7.48539E+01    6.82548E+01    6.10877E+01    5.25059E+01    4.25729E+01    3.20965E+01    2.09883E+01    1.03529E+01    7.64941E-01   -6.15588E+00   -1.00323E+01   -1.04582E+01   -8.23099E+00   -3.54697E+00   -2.19309E+00   -6.78012E-01   -1.35717E-01   -1.66759E-02   -2.01245E-05   -2.60209E-09    4.33681E-09  
 -298.7    Y      7.42678E-09    7.42678E-09    7.58942E-09    6.99310E-09    7.69784E-09    1.29867E-01    1.14304E-01    1.02372E-01    9.18122E-02    8.31081E-02    7.55004E-02    6.90475E-02    6.28243E-02    5.76815E-02    5.26701E-02    4.84944E-02    4.43978E-02    4.09923E-02    3.74156E-02    3.46263E-02   -1.02387E-01   -9.72451E-02   -9.49114E-02   -9.15488E-02   -8.70791E-02   -8.22217E-02   -7.63634E-02   -6.94404E-02   -6.19772E-02   -5.36304E-02   -4.48206E-02   -3.56367E-02   -2.69085E-02   -1.87488E-02   -1.18088E-02   -6.53386E-03   -3.11275E-03   -1.17189E-03   -3.30812E-04   -6.41161E-05   -7.83803E-06   -1.21031E-08   -2.36905E-12   -3.87782E-12    1.97804E-01    1.82913E-01    1.76142E-01    1.66179E-01    1.52414E-01    1.37195E-01    1.18700E-01    9.70248E-02    7.39055E-02    4.91178E-02    2.51067E-02    3.18279E-03   -1.29150E-02   -2.22226E-02   -2.36512E-02   -1.88705E-02   -1.09801E-02   -5.13238E-03   -1.60016E-03   -3.22737E-04   -3.99109E-05   -6.32632E-08    1.10047E-08   -1.84314E-09  
 -298.7    Z     -3.46945E-09    0.00000E+00    0.00000E+00   -1.73472E-09    0.00000E+00    6.25822E+01    5.48028E+01    4.89391E+01    4.38269E+01    3.96459E+01    3.60092E+01    3.29342E+01    2.99746E+01    2.75319E+01    2.51533E+01    2.31722E+01    2.12288E+01    1.96132E+01    1.79159E+01    1.65918E+01   -4.95537E+01   -4.69262E+01   -4.57577E+01   -4.40575E+01   -4.17912E+01   -3.93553E+01   -3.64608E+01   -3.30837E+01   -2.94795E+01   -2.54821E+01   -2.12906E+01   -1.69396E+01   -1.28133E+01   -8.95596E+00   -5.66868E+00   -3.15868E+00   -1.51871E+00   -5.78498E-01   -1.65548E-01   -3.25795E-02   -4.04745E-03   -6.48207E-06   -2.28275E-10   -8.15269E-12    9.55317E+01    8.81213E+01    8.47970E+01    7.98863E+01    7.31032E+01    6.56544E+01    5.66779E+01    4.62311E+01    3.51484E+01    2.33188E+01    1.18996E+01    1.49502E+00   -6.13790E+00   -1.05576E+01   -1.12514E+01   -9.00310E+00   -6.42420E+00   -2.48007E+00   -7.82022E-01   -1.60132E-01   -2.01791E-02   -2.58162E-05    1.30104E-08   -1.90820E-08  
 -296.7    X      1.73472E-09    1.73472E-09   -3.46945E-09    0.00000E+00    2.60209E-09    6.11966E+01    5.29684E+01    4.70425E+01    4.19248E+01    3.77685E+01    3.41746E+01    3.11516E+01    2.82560E+01    2.58767E+01    2.35694E+01    2.16551E+01    1.97841E+01    1.82341E+01    1.66114E+01    1.53496E+01   -4.99711E+01   -4.66634E+01   -4.53381E+01   -4.34945E+01   -4.11155E+01   -3.86006E+01   -3.56366E+01   -3.21998E+01   -2.85550E+01   -2.45410E+01   -2.03670E+01   -1.60753E+01   -1.20497E+01   -8.33323E+00   -5.21055E+00   -2.86396E+00   -1.35673E+00   -5.08282E-01   -1.42865E-01   -2.75719E-02   -3.35556E-03   -5.12341E-06   -1.71948E-10   -2.22346E-12    9.44242E+01    8.60133E+01    8.25011E+01    7.74545E+01    7.06236E+01    6.32047E+01    5.43217E+01    4.40411E+01    3.31990E+01    2.17041E+01    1.07001E+01    7.81572E-01   -6.37600E+00   -1.03828E+01   -1.08199E+01   -8.51334E+00   -3.65828E+00   -2.26705E+00   -7.00643E-01   -1.40193E-01   -1.72185E-02   -2.07629E-05    8.67362E-10    1.73472E-09  
 -296.7    Y      8.02310E-09    1.10589E-08    1.04083E-08    4.55365E-09    2.81893E-09    1.46818E-01    1.29574E-01    1.16088E-01    1.04156E-01    9.43225E-02    8.57272E-02    7.84351E-02    7.14009E-02    6.55859E-02    5.99173E-02    5.51921E-02    5.05543E-02    4.66972E-02    4.26443E-02    3.94821E-02   -1.14754E-01   -1.09668E-01   -1.07175E-01   -1.03478E-01   -9.84709E-02   -9.29922E-02   -8.63776E-02   -7.85640E-02   -7.01449E-02   -6.07318E-02   -5.07966E-02   -4.04351E-02   -3.05781E-02   -2.13488E-02   -1.34811E-02   -7.48244E-03   -3.57732E-03   -1.35222E-03   -3.83353E-04   -7.46301E-05   -9.16354E-06   -1.42817E-08   -8.99973E-12   -8.68209E-12    2.22611E-01    2.06940E-01    1.99496E-01    1.88373E-01    1.72857E-01    1.55639E-01    1.34702E-01    1.10164E-01    8.39897E-02    5.59199E-02    2.87151E-02    3.84905E-03   -1.44459E-02   -2.50749E-02   -2.67831E-02   -2.14327E-02   -1.37777E-02   -5.86994E-03   -1.83843E-03   -3.72764E-04   -4.63672E-05   -7.09068E-08    7.80626E-09    3.46945E-09  
 -296.7    Z     -1.30104E-09    1.73472E-09   -4.33681E-10    0.00000E+00   -4.33681E-09    6.38297E+01    5.58969E+01    4.99165E+01    4.47023E+01    4.04378E+01    3.67285E+01    3.35919E+01    3.05731E+01    2.80815E+01    2.56553E+01    2.36345E+01    2.16522E+01    2.00042E+01    1.82730E+01    1.69225E+01   -5.05399E+01   -4.78621E+01   -4.66707E+01   -4.49371E+01   -4.26261E+01   -4.01418E+01   -3.71898E+01   -3.37454E+01   -3.00693E+01   -2.59920E+01   -2.17166E+01   -1.72785E+01   -1.30694E+01   -9.13471E+00   -5.78158E+00   -3.22141E+00   -1.54876E+00   -5.89890E-01   -1.68790E-01   -3.32131E-02   -4.12555E-03   -6.60456E-06   -2.30816E-10    6.98802E-12    9.74332E+01    8.98784E+01    8.64886E+01    8.14806E+01    7.45627E+01    6.69656E+01    5.78102E+01    4.71550E+01    3.58510E+01    2.37849E+01    1.21373E+01    1.52457E+00   -6.26105E+00   -1.07691E+01   -1.14765E+01   -9.18294E+00   -6.55813E+00   -2.52934E+00   -7.97487E-01   -1.63279E-01   -2.05723E-02   -2.63084E-05    8.23994E-09   -1.73472E-08  
 -294.7    X      8.67362E-10   -1.73472E-09   -1.73472E-09    8.67362E-10    6.93889E-09    6.39754E+01    5.53646E+01    4.91632E+01    4.38088E+01    3.94610E+01    3.57022E+01    3.25410E+01    2.95133E+01    2.70259E+01    2.46139E+01    2.26131E+01    2.06576E+01    1.90379E+01    1.73423E+01    1.60240E+01   -5.22626E+01   -4.88038E+01   -4.74168E+01   -4.54870E+01   -4.29963E+01   -4.03632E+01   -3.72603E+01   -3.36630E+01   -2.98484E+01   -2.56484E+01   -2.12820E+01   -1.67937E+01   -1.25849E+01   -8.70072E+00   -5.43843E+00   -2.98804E+00   -1.41490E+00   -5.29827E-01   -1.48846E-01   -2.87107E-02   -3.49220E-03   -5.32534E-06   -1.72795E-10    6.77626E-12    9.87124E+01    8.99186E+01    8.62450E+01    8.09659E+01    7.38200E+01    6.60595E+01    5.67684E+01    4.60171E+01    3.46803E+01    2.26634E+01    1.11623E+01    7.98749E-01   -6.67646E+00   -1.08570E+01   -1.13073E+01   -8.89276E+00   -3.79124E+00   -2.36584E+00   -7.30758E-01   -1.46124E-01   -1.79340E-02   -2.15869E-05   -4.33681E-09    1.73472E-09  
 -294.7    Y      6.36969E-09    6.31548E-09    1.09504E-08    9.08019E-09    8.37546E-09    1.76171E-01    1.55100E-01    1.38805E-01    1.24431E-01    1.12605E-01    1.02282E-01    9.35343E-02    8.51030E-02    7.81385E-02    7.13541E-02    6.57023E-02    6.01582E-02    5.55499E-02    5.07101E-02    4.69357E-02   -1.38522E-01   -1.31977E-01   -1.28881E-01   -1.24334E-01   -1.18220E-01   -1.11561E-01   -1.03548E-01   -9.41030E-02   -8.39458E-02   -7.26102E-02   -6.06677E-02   -4.82352E-02   -3.64300E-02   -2.53978E-02   -1.60129E-02   -8.87309E-03   -4.23519E-03   -1.59816E-03   -4.52289E-04   -8.78900E-05   -1.07713E-05   -1.67242E-08   -1.69407E-11   -1.52995E-11    2.67728E-01    2.48222E-01    2.39140E-01    2.25645E-01    2.06895E-01    1.86146E-01    1.60964E-01    1.31497E-01    1.00108E-01    6.64937E-02    3.39655E-02    4.28754E-03   -1.74917E-02   -3.00823E-02   -3.20189E-02   -2.55595E-02   -1.57858E-02   -6.96942E-03   -2.17777E-03   -4.40489E-04   -5.46559E-05   -8.26704E-08    1.37423E-08   -1.89735E-10  
 -294.7    Z      0.00000E+00   -2.60209E-09   -8.67362E-10    8.67362E-10   -1.73472E-09    6.56985E+01    5.75290E+01    5.13704E+01    4.60014E+01    4.16106E+01    3.77917E+01    3.45627E+01    3.14551E+01    2.88904E+01    2.63932E+01    2.43133E+01    2.22732E+01    2.05772E+01    1.87956E+01    1.74059E+01   -5.20319E+01   -4.92749E+01   -4.80479E+01   -4.62623E+01   -4.38818E+01   -4.13230E+01   -3.82824E+01   -3.47349E+01   -3.09491E+01   -2.67504E+01   -2.23481E+01   -1.77789E+01   -1.34461E+01   -9.39655E+00   -5.94620E+00   -3.31243E+00   -1.59214E+00   -6.06251E-01   -1.73419E-01   -3.41128E-02   -4.23580E-03   -6.77532E-06   -2.32087E-10    1.14349E-11    1.00287E+02    9.25096E+01    8.90195E+01    8.38632E+01    7.67405E+01    6.89188E+01    5.94930E+01    4.85239E+01    3.68876E+01    2.44680E+01    1.24804E+01    1.55943E+00   -6.45055E+00   -1.10864E+01   -1.18110E+01   -9.44825E+00   -6.72764E+00   -2.60108E+00   -8.19848E-01   -1.67794E-01   -2.11323E-02   -2.70001E-05    1.38778E-08   -2.34188E-08  
 -292.7    X     -4.33681E-09   -6.93889E-09   -8.67362E-09   -4.33681E-09   -2.60209E-09    6.63295E+01    5.73970E+01    5.09629E+01    4.54085E+01    4.08988E+01    3.70004E+01    3.37221E+01    3.05826E+01    2.80035E+01    2.55028E+01    2.34285E+01    2.14014E+01    1.97225E+01    1.79650E+01    1.65986E+01   -5.41981E+01   -5.06141E+01   -4.91757E+01   -4.71735E+01   -4.45888E+01   -4.18562E+01   -3.86361E+01   -3.49033E+01   -3.09455E+01   -2.65883E+01   -2.20591E+01   -1.74043E+01   -1.30402E+01   -9.01369E+00   -5.63274E+00   -3.09398E+00   -1.46466E+00   -5.48283E-01   -1.53978E-01   -2.96898E-02   -3.60993E-03   -5.50022E-06   -1.99900E-10   -1.35525E-11    1.02341E+02    9.32276E+01    8.94183E+01    8.39432E+01    7.65312E+01    6.84818E+01    5.88456E+01    4.76956E+01    3.59399E+01    2.34804E+01    1.15574E+01    8.15872E-01   -6.92965E+00   -1.12586E+01   -1.17210E+01   -9.21533E+00   -3.91355E+00   -2.45011E+00   -7.56500E-01   -1.51205E-01   -1.85487E-02   -2.22981E-05   -8.67362E-10    5.20417E-09  
 -292.7    Y      9.54098E-09    1.25767E-08    1.34441E-08    1.25767E-08    1.30104E-08    8.03160E-02    7.09259E-02    6.36490E-02    5.71388E-02    5.17433E-02    4.70126E-02    4.29923E-02    3.91108E-02    3.59012E-02    3.27726E-02    3.01655E-02    2.76078E-02    2.54818E-02    2.32494E-02    2.15089E-02   -6.31568E-02   -6.00678E-02   -5.86542E-02   -5.66406E-02   -5.39769E-02   -5.10590E-02   -4.74994E-02   -4.32526E-02   -3.86418E-02   -3.34565E-02   -2.79623E-02   -2.22225E-02   -1.67634E-02   -1.16614E-02   -7.32705E-03   -4.03984E-03   -1.91558E-03   -7.16815E-04   -2.00926E-04   -3.86426E-05   -4.68744E-06   -7.11084E-09    1.46643E-11    1.39231E-11    1.22200E-01    1.13134E-01    1.08987E-01    1.02917E-01    9.45408E-02    8.52344E-02    7.38561E-02    6.04534E-02    4.61040E-02    3.06743E-02    1.56967E-02    2.00640E-03   -8.04877E-03   -1.38573E-02   -1.47394E-02   -1.17437E-02   -5.15776E-03   -3.17391E-03   -9.83877E-04   -1.96915E-04   -2.41248E-05   -4.98733E-08    4.77049E-09   -6.07153E-09  
 -292.7    Z      8.67362E-10   -1.73472E-09    2.16840E-09    5.20417E-09    3.90313E-09    6.70466E+01    5.87117E+01    5.24271E+01    4.69479E+01    4.24669E+01    3.85694E+01    3.52740E+01    3.21024E+01    2.94848E+01    2.69361E+01    2.48134E+01    2.27312E+01    2.10002E+01    1.91819E+01    1.77635E+01   -5.30965E+01   -5.02858E+01   -4.90344E+01   -4.72129E+01   -4.47841E+01   -4.21731E+01   -3.90704E+01   -3.54502E+01   -3.15867E+01   -2.73017E+01   -2.28088E+01   -1.81453E+01   -1.37231E+01   -9.58990E+00   -6.06834E+00   -3.38030E+00   -1.62466E+00   -6.18579E-01   -1.76927E-01   -3.47985E-02   -4.32030E-03   -6.90779E-06   -2.31558E-10    1.41349E-11    1.02340E+02    9.44084E+01    9.08477E+01    8.55866E+01    7.83183E+01    7.03364E+01    6.07174E+01    4.95229E+01    3.76475E+01    2.49723E+01    1.27378E+01    1.59164E+00   -6.58353E+00   -1.13150E+01   -1.20543E+01   -9.64275E+00   -6.87105E+00   -2.65438E+00   -8.36579E-01   -1.71199E-01   -2.15578E-02   -2.75331E-05    1.17094E-08   -1.82146E-08  
 -290.7    X      8.67362E-10   -8.67362E-10    5.20417E-09    2.60209E-09    0.00000E+00    6.87117E+01    5.94510E+01    5.27805E+01    4.70229E+01    4.23490E+01    3.83091E+01    3.49123E+01    3.16596E+01    2.89877E+01    2.63974E+01    2.42488E+01    2.21494E+01    2.04107E+01    1.85908E+01    1.71759E+01   -5.61628E+01   -5.24498E+01   -5.09586E+01   -4.88825E+01   -4.62019E+01   -4.33678E+01   -4.00284E+01   -3.61577E+01   -3.20543E+01   -2.75374E+01   -2.28432E+01   -1.80197E+01   -1.34986E+01   -9.32834E+00   -5.82778E+00   -3.20014E+00   -1.51441E+00   -5.66702E-01   -1.59089E-01   -3.06624E-02   -3.72658E-03   -5.67243E-06   -1.89735E-10    8.47033E-13    1.06017E+02    9.65756E+01    9.26281E+01    8.69535E+01    7.92714E+01    7.09289E+01    6.09426E+01    4.93889E+01    3.72090E+01    2.43018E+01    1.19527E+01    8.29923E-01   -7.18764E+00   -1.16653E+01   -1.21388E+01   -9.54034E+00   -4.02751E+00   -2.53465E+00   -7.82258E-01   -1.56275E-01   -1.91600E-02   -2.30024E-05   -7.80626E-09    1.73472E-09  
 -290.7    Y      7.80626E-09    7.80626E-09    1.17094E-08    1.12757E-08    5.85469E-09   -2.10735E-02   -1.75437E-02   -1.52873E-02   -1.34868E-02   -1.20842E-02   -1.09023E-02   -9.92441E-03   -8.99745E-03   -8.24078E-03   -7.50994E-03   -6.90503E-03   -6.31458E-03   -5.82575E-03   -5.31402E-03   -4.91600E-03    1.81338E-02    1.63585E-02    1.57595E-02    1.49264E-02    1.38650E-02    1.28088E-02    1.16536E-02    1.03970E-02    9.12948E-03    7.79083E-03    6.44251E-03    5.08287E-03    3.81948E-03    2.65685E-03    1.67927E-03    9.39936E-04    4.57299E-04    1.77592E-04    5.20439E-05    1.04956E-05    1.33156E-06    2.19318E-09    1.95876E-12    2.27640E-12   -3.34194E-02   -2.95081E-02   -2.80954E-02   -2.60837E-02   -2.34120E-02   -2.06373E-02   -1.74740E-02   -1.39575E-02   -1.03620E-02   -6.64739E-03   -3.16364E-03   -6.71594E-05    2.14220E-03    3.36203E-03    3.47064E-03    2.73034E-03    4.36756E-03    7.46882E-04    2.38265E-04    4.98252E-05    6.46748E-06   -8.23994E-09    1.14925E-08   -2.60209E-09  
 -290.7    Z      3.46945E-09    0.00000E+00    6.93889E-09    5.20417E-09   -3.46945E-09    6.89651E+01    6.03888E+01    5.39218E+01    4.82838E+01    4.36733E+01    3.96635E+01    3.62732E+01    3.30104E+01    3.03177E+01    2.76960E+01    2.55126E+01    2.33709E+01    2.15906E+01    1.97205E+01    1.82618E+01   -5.46246E+01   -5.17344E+01   -5.04469E+01   -4.85725E+01   -4.60728E+01   -4.33856E+01   -4.01923E+01   -3.64666E+01   -3.24907E+01   -2.80813E+01   -2.34583E+01   -1.86603E+01   -1.41110E+01   -9.85972E+00   -6.23811E+00   -3.47424E+00   -1.66947E+00   -6.35494E-01   -1.81718E-01   -3.57302E-02   -4.43457E-03   -7.08506E-06   -2.41404E-10    8.04681E-12    1.05267E+02    9.71100E+01    9.34471E+01    8.80343E+01    8.05563E+01    7.23441E+01    6.24477E+01    5.09311E+01    3.87146E+01    2.56762E+01    1.30922E+01    1.62899E+00   -6.77728E+00   -1.16407E+01   -1.23982E+01   -9.91583E+00   -7.04809E+00   -2.72839E+00   -8.59671E-01   -1.75868E-01   -2.21374E-02   -2.82465E-05    1.04083E-08   -2.08167E-08  
