Data type: dB/dt; UNIT: nT/s
Number of stations: 301
Stations (m): -299.7 -297.7 -295.7 -293.7 -291.7 -289.7 -287.7 -285.7 -283.7 -281.7 -279.7 -277.7 -275.7 -273.7 -271.7 -269.7 -267.7 -265.7 -263.7 -261.7 -259.7 -257.7 -255.7 -253.7 -251.7 -249.7 -247.7 -245.7 -243.7 -241.7 -239.7 -237.7 -235.7 -233.7 -231.7 -229.7 -227.7 -225.7 -223.7 -221.7 -219.7 -217.7 -215.7 -213.7 -211.7 -209.7 -207.7 -205.7 -203.7 -201.7 -199.7 -197.7 -195.7 -193.7 -191.7 -189.7 -187.7 -185.7 -183.7 -181.7 -179.7 -177.7 -175.7 -173.7 -171.7 -169.7 -167.7 -165.7 -163.7 -161.7 -159.7 -157.7 -155.7 -153.7 -151.7 -149.7 -147.7 -145.7 -143.7 -141.7 -139.7 -137.7 -135.7 -133.7 -131.7 -129.7 -127.7 -125.7 -123.7 -121.7 -119.7 -117.7 -115.7 -113.7 -111.7 -109.7 -107.7 -105.7 -103.7 -101.7 -99.7 -97.7 -95.7 -93.7 -91.7 -89.7 -87.7 -85.7 -83.7 -81.7 -79.7 -77.7 -75.7 -73.7 -71.7 -69.7 -67.7 -65.7 -63.7 -61.7 -59.7 -57.7 -55.7 -53.7 -51.7 -49.7 -47.7 -45.7 -43.7 -41.7 -39.7 -37.7 -35.7 -33.7 -31.7 -29.7 -27.7 -25.7 -23.7 -21.7 -19.7 -17.7 -15.7 -13.7 -11.7 -9.69999999999999 -7.69999999999999 -5.69999999999999 -3.69999999999999 -1.69999999999999 0.300000000000011 2.30000000000001 4.30000000000001 6.30000000000001 8.30000000000001 10.3 12.3 14.3 16.3 18.3 20.3 22.3 24.3 26.3 28.3 30.3 32.3 34.3 36.3 38.3 40.3 42.3 44.3 46.3 48.3 50.3 52.3 54.3 56.3 58.3 60.3 62.3 64.3 66.3 68.3 70.3 72.3 74.3 76.3 78.3 80.3 82.3 84.3 86.3 88.3 90.3 92.3 94.3 96.3 98.3 100.3 102.3 104.3 106.3 108.3 110.3 112.3 114.3 116.3 118.3 120.3 122.3 124.3 126.3 128.3 130.3 132.3 134.3 136.3 138.3 140.3 142.3 144.3 146.3 148.3 150.3 152.3 154.3 156.3 158.3 160.3 162.3 164.3 166.3 168.3 170.3 172.3 174.3 176.3 178.3 180.3 182.3 184.3 186.3 188.3 190.3 192.3 194.3 196.3 198.3 200.3 202.3 204.3 206.3 208.3 210.3 212.3 214.3 216.3 218.3 220.3 222.3 224.3 226.3 228.3 230.3 232.3 234.3 236.3 238.3 240.3 242.3 244.3 246.3 248.3 250.3 252.3 254.3 256.3 258.3 260.3 262.3 264.3 266.3 268.3 270.3 272.3 274.3 276.3 278.3 280.3 282.3 284.3 286.3 288.3 290.3 292.3 294.3 296.3 298.3 300.3
Channel times (ms):
   1    -1.9500 
   2    -1.8500 
   3    -1.7500 
   4    -1.6500 
   5    -1.5500 
   6    -1.4495 
   7    -1.3500 
   8    -1.2500 
   9    -1.1500 
   10   -1.0500 
   11   -0.9500 
   12   -0.8500 
   13   -0.7500 
   14   -0.6500 
   15   -0.5500 
   16   -0.4500 
   17   -0.3500 
   18   -0.2500 
   19   -0.1500 
   20   -0.0500 
   21    0.0255 
   22    0.0550 
   23    0.0700 
   24    0.0950 
   25    0.1300 
   26    0.1750 
   27    0.2350 
   28    0.3150 
   29    0.4200 
   30    0.5600 
   31    0.7450 
   32    0.9900 
   33    1.3150 
   34    1.7450 
   35    2.3150 
   36    3.0750 
   37    4.0850 
   38    5.4250 
   39    7.2050 
   40    9.5700 
   41    12.6600
   42    22.7300
   43    39.3950
   44    48.1150
   45    48.5255
   46    48.5550
   47    48.5700
   48    48.5950
   49    48.6300
   50    48.6750
   51    48.7350
   52    48.8150
   53    48.9200
   54    49.0600
   55    49.2450
   56    49.4900
   57    49.8150
   58    50.2450
   59    50.8150
   60    51.5750
   61    52.5850
   62    53.9250
   63    55.7050
   64    58.0700
   65    61.1600
   66    71.2300
   67    87.8950
   68    97.1150
EM data:
Station Component      CH1            CH2            CH3            CH4            CH5            CH6            CH7            CH8            CH9           CH10           CH11           CH12           CH13           CH14           CH15           CH16           CH17           CH18           CH19           CH20           CH21           CH22           CH23           CH24           CH25           CH26           CH27           CH28           CH29           CH30           CH31           CH32           CH33           CH34           CH35           CH36           CH37           CH38           CH39           CH40           CH41           CH42           CH43           CH44           CH45           CH46           CH47           CH48           CH49           CH50           CH51           CH52           CH53           CH54           CH55           CH56           CH57           CH58           CH59           CH60           CH61           CH62           CH63           CH64           CH65           CH66           CH67           CH68      
 -298.7    X     -4.16334E-08   -2.77556E-08   -2.77556E-08   -3.46945E-08   -2.08167E-08    2.09094E+01    1.75559E+01    1.53109E+01    1.34249E+01    1.19266E+01    1.06553E+01    9.60407E+00    8.61265E+00    7.80971E+00    7.04150E+00    6.41219E+00    5.80446E+00    5.30679E+00    4.79161E+00    4.39520E+00   -1.83347E+01   -1.67104E+01   -1.61171E+01   -1.53299E+01   -1.43538E+01   -1.33479E+01   -1.21835E+01   -1.08570E+01   -9.47718E+00   -7.99120E+00   -6.48648E+00   -4.98613E+00   -3.62784E+00   -2.42343E+00   -1.45656E+00   -7.66055E-01   -3.45978E-01   -1.22839E-01   -3.25565E-02   -5.88691E-03   -6.67643E-04   -8.57027E-07   -2.92226E-11   -1.69407E-12    3.29257E+01    2.92807E+01    2.78816E+01    2.59456E+01    2.34088E+01    2.07139E+01    1.75418E+01    1.39334E+01    1.02005E+01    6.33033E+00    2.72738E+00   -4.03488E-01   -2.53684E+00   -3.58770E+00   -3.50022E+00   -2.61503E+00    3.97389E+00   -6.26100E-01   -1.81518E-01   -3.36985E-02   -3.79866E-03   -3.69843E-06    1.38778E-08    3.46945E-08  
 -298.7    Y     -3.64292E-08   -2.94903E-08   -1.73472E-08    5.20417E-09   -2.60209E-08   -1.12278E-01   -9.53651E-02   -8.31025E-02   -7.27589E-02   -6.45616E-02   -5.76242E-02   -5.19000E-02   -4.65116E-02   -4.21545E-02   -3.79917E-02   -3.45858E-02   -3.13003E-02   -2.86127E-02   -2.58332E-02   -2.36964E-02    9.65525E-02    8.97996E-02    8.70469E-02    8.31724E-02    7.80857E-02    7.26500E-02    6.62601E-02    5.89563E-02    5.13717E-02    4.32299E-02    3.50153E-02    2.68540E-02    1.94919E-02    1.29877E-02    7.78575E-03    4.08469E-03    1.84078E-03    6.52346E-04    1.72649E-04    3.11897E-05    3.53608E-06    4.54518E-09    4.47339E-12   -6.96155E-12   -1.74076E-01   -1.57664E-01   -1.50788E-01   -1.40884E-01   -1.27434E-01   -1.12836E-01   -9.55065E-02   -7.57662E-02   -5.53788E-02   -3.42924E-02   -1.47174E-02    2.24168E-03    1.37521E-02    1.93800E-02    1.88564E-02    1.40506E-02   -2.15989E-02    3.34573E-03    9.67209E-04    1.79044E-04    2.01766E-05   -1.24900E-07    6.93889E-09   -1.45717E-07  
 -298.7    Z      1.38778E-08    3.46945E-08    1.04083E-08   -1.04083E-08    2.77556E-08    2.02881E+01    1.74038E+01    1.52628E+01    1.34453E+01    1.19924E+01    1.07531E+01    9.72340E+00    8.74806E+00    7.95493E+00    7.19322E+00    6.56700E+00    5.96019E+00    5.46166E+00    4.94394E+00    4.54439E+00   -1.69362E+01   -1.59996E+01   -1.55581E+01   -1.49039E+01   -1.40263E+01   -1.30882E+01   -1.19872E+01   -1.07243E+01   -9.40334E+00   -7.97189E+00   -6.51167E+00   -5.04322E+00   -3.70058E+00   -2.49650E+00   -1.51735E+00   -8.07931E-01   -3.69690E-01   -1.33135E-01   -3.58122E-02   -6.57747E-03   -7.58142E-04   -1.01326E-06   -9.38089E-11   -5.68571E-11    3.10607E+01    2.85428E+01    2.73796E+01    2.56493E+01    2.32664E+01    2.06740E+01    1.75920E+01    1.40646E+01    1.03948E+01    6.56464E+00    2.96925E+00   -1.89949E-01   -2.38151E+00   -3.50805E+00   -3.49015E+00   -2.64745E+00   -2.22270E+00   -6.53331E-01   -1.92747E-01   -3.64944E-02   -4.20337E-03   -4.46518E-06   -9.71445E-08   -3.46945E-09  
 -296.7    X      6.93889E-09    6.93889E-09    1.38778E-08    6.93889E-09    6.93889E-09    2.16566E+01    1.81855E+01    1.58591E+01    1.39048E+01    1.23523E+01    1.10352E+01    9.94605E+00    8.91896E+00    8.08718E+00    7.29140E+00    6.63955E+00    6.01006E+00    5.49460E+00    4.96102E+00    4.55047E+00   -1.89844E+01   -1.73098E+01   -1.66966E+01   -1.58820E+01   -1.48709E+01   -1.38285E+01   -1.26218E+01   -1.12471E+01   -9.81712E+00   -8.27730E+00   -6.71818E+00   -5.16376E+00   -3.75667E+00   -2.50917E+00   -1.50786E+00   -7.92910E-01   -3.58043E-01   -1.27098E-01   -3.36785E-02   -6.08849E-03   -6.90356E-04   -8.85732E-07   -2.03288E-11    3.38813E-12    3.40913E+01    3.03285E+01    2.88814E+01    2.68771E+01    2.42494E+01    2.14574E+01    1.81706E+01    1.44320E+01    1.05646E+01    6.55527E+00    2.82311E+00   -4.19671E-01   -2.62886E+00   -3.71659E+00   -3.62529E+00   -2.70803E+00    4.18082E+00   -6.48127E-01   -1.87862E-01   -3.48671E-02   -3.92928E-03   -3.80945E-06   -1.38778E-08    3.46945E-08  
 -296.7    Y     -1.38778E-08   -1.21431E-08   -1.12757E-08   -1.73472E-08   -1.64799E-08   -1.80200E-03   -9.58674E-04   -4.79942E-04   -1.13903E-04    1.23083E-04    2.83011E-04    3.85729E-04    4.58338E-04    4.99678E-04    5.24262E-04    5.33162E-04    5.31841E-04    5.23082E-04    5.06455E-04    4.88307E-04    3.43131E-03    2.17231E-03    1.92585E-03    1.71976E-03    1.51244E-03    1.27039E-03    9.63392E-04    6.26035E-04    3.17469E-04    4.50756E-05   -1.61953E-04   -2.96188E-04   -3.48596E-04   -3.30369E-04   -2.60849E-04   -1.70617E-04   -9.17637E-05   -3.77550E-05   -1.12973E-05   -2.25995E-06   -2.78000E-07   -3.98529E-10    1.27055E-12   -7.19978E-12   -4.40603E-03   -2.32358E-03   -1.92747E-03   -1.58774E-03   -1.23770E-03   -8.44784E-04   -3.70809E-04    1.11467E-04    5.00780E-04    7.64320E-04    8.53053E-04    7.64462E-04    5.34852E-04    2.33062E-04   -3.33830E-05   -1.78153E-04   -9.38476E-04   -1.11727E-04   -4.29587E-05   -1.01022E-05   -1.30798E-06   -1.68268E-07    4.94396E-08   -9.71445E-08  
 -296.7    Z     -1.04083E-08   -1.04083E-08   -3.46945E-08    3.46945E-09   -2.08167E-08    2.06726E+01    1.77349E+01    1.55533E+01    1.37013E+01    1.22208E+01    1.09579E+01    9.90862E+00    8.91470E+00    8.10645E+00    7.33022E+00    6.69206E+00    6.07368E+00    5.56564E+00    5.03804E+00    4.63087E+00   -1.72548E+01   -1.63027E+01   -1.58533E+01   -1.51870E+01   -1.42931E+01   -1.33372E+01   -1.22154E+01   -1.09286E+01   -9.58252E+00   -8.12385E+00   -6.63582E+00   -5.13938E+00   -3.77111E+00   -2.54405E+00   -1.54622E+00   -8.23274E-01   -3.76694E-01   -1.35650E-01   -3.64863E-02   -6.70072E-03   -7.72273E-04   -1.03179E-06   -5.25160E-11   -3.72694E-11    3.16463E+01    2.90843E+01    2.78996E+01    2.61371E+01    2.37092E+01    2.10677E+01    1.79272E+01    1.43328E+01    1.05931E+01    6.69003E+00    3.02610E+00   -1.93372E-01   -2.42678E+00   -3.57486E+00   -3.55664E+00   -2.69787E+00   -2.16958E+00   -6.65739E-01   -1.96397E-01   -3.71830E-02   -4.28226E-03   -4.55885E-06   -5.20417E-08    3.12250E-08  
 -294.7    X     -2.77556E-08    8.32667E-08   -2.77556E-08   -2.77556E-08   -8.32667E-08    2.25935E+01    1.89705E+01    1.65413E+01    1.45010E+01    1.28805E+01    1.15059E+01    1.03693E+01    9.29764E+00    8.42985E+00    7.59971E+00    6.91978E+00    6.26325E+00    5.72569E+00    5.16929E+00    4.74121E+00   -1.98095E+01   -1.80646E+01   -1.74250E+01   -1.65747E+01   -1.55187E+01   -1.44300E+01   -1.31696E+01   -1.17339E+01   -1.02408E+01   -8.63318E+00   -7.00578E+00   -5.38365E+00   -3.91568E+00   -2.61463E+00   -1.57072E+00   -8.25660E-01   -3.72687E-01   -1.32241E-01   -3.50259E-02   -6.32922E-03   -7.17325E-04   -9.19309E-07    1.35525E-11    1.35525E-11    3.55628E+01    3.16411E+01    3.01314E+01    2.80398E+01    2.52970E+01    2.23825E+01    1.89519E+01    1.50500E+01    1.10144E+01    6.83152E+00    2.93858E+00   -4.42902E-01   -2.74549E+00   -3.87793E+00   -3.78085E+00   -2.82310E+00    4.47201E+00   -6.75098E-01   -1.95581E-01   -3.62791E-02   -4.08588E-03   -3.98293E-06   -1.11022E-07    4.16334E-08  
 -294.7    Y      2.25514E-08    5.20417E-09    3.29597E-08   -2.25514E-08   -3.46945E-09    2.93543E-02    2.56052E-02    2.26093E-02    2.00662E-02    1.80045E-02    1.62228E-02    1.47259E-02    1.32950E-02    1.21221E-02    1.09880E-02    1.00499E-02    9.13601E-03    8.38139E-03    7.59403E-03    6.98379E-03   -2.28098E-02   -2.28687E-02   -2.24421E-02   -2.15975E-02   -2.03572E-02   -1.90442E-02   -1.75359E-02   -1.58105E-02   -1.39843E-02   -1.19710E-02   -9.87797E-03   -7.73409E-03   -5.73824E-03   -3.91608E-03   -2.40759E-03   -1.29558E-03   -5.98128E-04   -2.16918E-04   -5.86076E-05   -1.07797E-05   -1.23982E-06   -1.56151E-09    4.95514E-11    5.44219E-11    4.29365E-02    4.15506E-02    4.01720E-02    3.77927E-02    3.43488E-02    3.06138E-02    2.62105E-02    2.11591E-02    1.58482E-02    1.02291E-02    4.87037E-03    7.71111E-05   -3.33076E-03   -5.17099E-03   -5.27138E-03   -4.07092E-03    5.03223E-03   -1.03493E-03   -3.09277E-04   -5.92356E-05   -6.84348E-06   -1.68268E-07    3.29597E-08   -1.37043E-07  
 -294.7    Z     -2.77556E-08    8.32667E-08   -1.21431E-08   -1.73472E-08   -3.98986E-08    2.13829E+01    1.83425E+01    1.60851E+01    1.41688E+01    1.26370E+01    1.13305E+01    1.02450E+01    9.21686E+00    8.38084E+00    7.57798E+00    6.91796E+00    6.27844E+00    5.75305E+00    5.20747E+00    4.78643E+00   -1.78520E+01   -1.68662E+01   -1.64010E+01   -1.57113E+01   -1.47861E+01   -1.37968E+01   -1.26357E+01   -1.13040E+01   -9.91107E+00   -8.40172E+00   -6.86213E+00   -5.31402E+00   -3.89872E+00   -2.62970E+00   -1.59796E+00   -8.50639E-01   -3.89122E-01   -1.40088E-01   -3.76694E-02   -6.91590E-03   -7.96810E-04   -1.06360E-06    1.34466E-11    4.83868E-11    3.27349E+01    3.00834E+01    2.88576E+01    2.70338E+01    2.45217E+01    2.17888E+01    1.85397E+01    1.48212E+01    1.09528E+01    6.91564E+00    3.12629E+00   -2.02891E-01   -2.51183E+00   -3.69803E+00   -3.67815E+00   -2.78938E+00   -2.02884E+00   -6.87975E-01   -2.02894E-01   -3.83992E-02   -4.42058E-03   -4.68028E-06   -1.09288E-07    4.85723E-08  
 -292.7    X      1.11022E-07    1.38778E-08    5.55112E-08   -1.38778E-08    1.38778E-08    2.36257E+01    1.98354E+01    1.72929E+01    1.51578E+01    1.34623E+01    1.20242E+01    1.08354E+01    9.71458E+00    8.80712E+00    7.93913E+00    7.22827E+00    6.54194E+00    5.98004E+00    5.39850E+00    4.95113E+00   -2.07179E+01   -1.88964E+01   -1.82277E+01   -1.73381E+01   -1.62327E+01   -1.50929E+01   -1.37733E+01   -1.22704E+01   -1.07075E+01   -9.02522E+00   -7.32253E+00   -5.62578E+00   -4.09074E+00   -2.73070E+00   -1.63988E+00   -8.61686E-01   -3.88790E-01   -1.37894E-01   -3.65065E-02   -6.59366E-03   -7.46942E-04   -9.56212E-07   -5.42101E-11   -6.77626E-11    3.71828E+01    3.30871E+01    3.15087E+01    2.93210E+01    2.64513E+01    2.34018E+01    1.98126E+01    1.57309E+01    1.15099E+01    7.13563E+00    3.06556E+00   -4.68687E-01   -2.87411E+00   -4.05570E+00   -3.95219E+00   -2.94980E+00    4.78849E+00   -7.04773E-01   -2.04071E-01   -3.78312E-02   -4.25790E-03   -4.13558E-06   -6.93889E-08    1.52656E-07  
 -292.7    Y      2.60209E-08   -1.38778E-08    1.90820E-08   -3.46945E-09    3.81639E-08   -8.13928E-03   -6.70051E-03   -5.59733E-03   -4.67998E-03   -3.99305E-03   -3.44303E-03   -3.01153E-03   -2.62348E-03   -2.32263E-03   -2.04613E-03   -1.82802E-03   -1.62477E-03   -1.46399E-03   -1.30309E-03   -1.18317E-03    8.07535E-03    6.96801E-03    6.68493E-03    6.36604E-03    5.95193E-03    5.45795E-03    4.83892E-03    4.13352E-03    3.43195E-03    2.72481E-03    2.06382E-03    1.46097E-03    9.67489E-04    5.77734E-04    3.04544E-04    1.38038E-04    5.30268E-05    1.57295E-05    3.45054E-06    5.14783E-07    4.91305E-08    4.99749E-11   -1.10114E-11    2.79521E-11   -1.34974E-02   -1.13345E-02   -1.07214E-02   -9.96564E-03   -8.95087E-03   -7.78101E-03   -6.35176E-03   -4.75312E-03   -3.18155E-03   -1.66027E-03   -3.63445E-04    6.41180E-04    1.20454E-03    1.35079E-03    1.13907E-03    7.45570E-04    1.76239E-03    1.32165E-04    3.15165E-05    4.56059E-06    4.31946E-07   -1.61329E-07    5.20417E-09   -1.12757E-07  
 -292.7    Z      1.38778E-08    2.77556E-08   -1.38778E-08    1.38778E-08   -6.24500E-08    2.19213E+01    1.88069E+01    1.64926E+01    1.45279E+01    1.29574E+01    1.16178E+01    1.05048E+01    9.45055E+00    8.59333E+00    7.77010E+00    7.09334E+00    6.43759E+00    5.89887E+00    5.33944E+00    4.90772E+00   -1.82959E+01   -1.72905E+01   -1.68146E+01   -1.61084E+01   -1.51602E+01   -1.41461E+01   -1.29558E+01   -1.15905E+01   -1.01624E+01   -8.61483E+00   -7.03624E+00   -5.44886E+00   -3.99763E+00   -2.69638E+00   -1.63845E+00   -8.72159E-01   -3.98948E-01   -1.43617E-01   -3.86153E-02   -7.08888E-03   -8.16643E-04   -1.08982E-06   -1.23667E-10   -5.92923E-12    3.35517E+01    3.08419E+01    2.95867E+01    2.77181E+01    2.51432E+01    2.23413E+01    1.90101E+01    1.51976E+01    1.12311E+01    7.09165E+00    3.20614E+00   -2.07601E-01   -2.57525E+00   -3.79167E+00   -3.77136E+00   -2.86007E+00   -1.92333E+00   -7.05378E-01   -2.08016E-01   -3.93654E-02   -4.53128E-03   -4.78090E-06   -1.04083E-07    5.55112E-08  
 -290.7    X     -1.38778E-08    1.38778E-08    3.46945E-08    2.77556E-08    5.55112E-08    2.45156E+01    2.05833E+01    1.79434E+01    1.57266E+01    1.39665E+01    1.24738E+01    1.12399E+01    1.00766E+01    9.13487E+00    8.23415E+00    7.49652E+00    6.78439E+00    6.20140E+00    5.59807E+00    5.13395E+00   -2.14964E+01   -1.96121E+01   -1.89190E+01   -1.79961E+01   -1.68486E+01   -1.56650E+01   -1.42946E+01   -1.27340E+01   -1.11113E+01   -9.36463E+00   -7.59706E+00   -5.83591E+00   -4.24287E+00   -2.83173E+00   -1.70019E+00   -8.93167E-01   -4.02893E-01   -1.42856E-01   -3.78095E-02   -6.82697E-03   -7.73140E-04   -9.89144E-07   -5.75982E-11    2.11758E-11    3.85752E+01    3.43345E+01    3.26980E+01    3.04281E+01    2.74496E+01    2.42840E+01    2.05581E+01    1.63212E+01    1.19402E+01    7.40058E+00    3.17719E+00   -4.89558E-01   -2.98444E+00   -4.20914E+00   -4.10053E+00   -3.05977E+00    5.05207E+00   -7.30656E-01   -2.11497E-01   -3.91933E-02   -4.40942E-03   -4.22579E-06   -6.24500E-08    7.63278E-08  
 -290.7    Y     -6.93889E-09   -3.46945E-08   -1.04083E-08   -5.89806E-08   -1.73472E-08    2.61856E-02    2.24772E-02    1.98118E-02    1.75645E-02    1.57433E-02    1.41694E-02    1.28476E-02    1.15846E-02    1.05502E-02    9.55082E-03    8.72494E-03    7.92106E-03    7.25794E-03    6.56675E-03    6.03158E-03   -2.11203E-02   -2.05388E-02   -2.00223E-02   -1.91568E-02   -1.79879E-02   -1.67993E-02   -1.54563E-02   -1.39274E-02   -1.23096E-02   -1.05252E-02   -8.67025E-03   -6.77225E-03   -5.00923E-03   -3.40509E-03   -2.08321E-03   -1.11453E-03   -5.11197E-04   -1.84029E-04   -4.93304E-05   -8.99697E-06   -1.02562E-06   -1.29554E-09   -1.35525E-11    8.47033E-12    3.91793E-02    3.69289E-02    3.55010E-02    3.32247E-02    3.00821E-02    2.67546E-02    2.28699E-02    1.84281E-02    1.37623E-02    8.82953E-03    4.13216E-03   -5.75460E-05   -3.01954E-03   -4.59602E-03   -4.64546E-03   -3.56428E-03    8.88006E-03   -8.93712E-04   -2.64899E-04   -5.02515E-05   -5.71418E-06   -2.04697E-07    3.46945E-09   -1.42247E-07  
 -290.7    Z      4.16334E-08    1.38778E-08    2.77556E-08    4.16334E-08    6.93889E-08    2.23859E+01    1.92077E+01    1.68445E+01    1.48381E+01    1.32342E+01    1.18661E+01    1.07294E+01    9.65271E+00    8.77719E+00    7.93637E+00    7.24514E+00    6.57537E+00    6.02513E+00    5.45373E+00    5.01276E+00   -1.86791E+01   -1.76563E+01   -1.71712E+01   -1.64507E+01   -1.54828E+01   -1.44474E+01   -1.32320E+01   -1.18378E+01   -1.03794E+01   -8.79894E+00   -7.18674E+00   -5.56549E+00   -4.08324E+00   -2.75413E+00   -1.67353E+00   -8.90816E-01   -4.07471E-01   -1.46678E-01   -3.94364E-02   -7.23908E-03   -8.33869E-04   -1.11234E-06   -1.86347E-11   -2.54110E-11    3.42574E+01    3.14964E+01    3.02157E+01    2.83084E+01    2.56794E+01    2.28183E+01    1.94163E+01    1.55228E+01    1.14718E+01    7.24404E+00    3.27549E+00   -2.11345E-01   -2.62982E+00   -3.87248E+00   -3.85191E+00   -2.92122E+00   -1.80945E+00   -7.20455E-01   -2.12456E-01   -4.02036E-02   -4.62741E-03   -4.89886E-06   -1.24900E-07    5.55112E-08  
