Data type: dB/dt; UNIT: nT/s
Number of stations: 301
Stations (m): -299.7 -297.7 -295.7 -293.7 -291.7 -289.7 -287.7 -285.7 -283.7 -281.7 -279.7 -277.7 -275.7 -273.7 -271.7 -269.7 -267.7 -265.7 -263.7 -261.7 -259.7 -257.7 -255.7 -253.7 -251.7 -249.7 -247.7 -245.7 -243.7 -241.7 -239.7 -237.7 -235.7 -233.7 -231.7 -229.7 -227.7 -225.7 -223.7 -221.7 -219.7 -217.7 -215.7 -213.7 -211.7 -209.7 -207.7 -205.7 -203.7 -201.7 -199.7 -197.7 -195.7 -193.7 -191.7 -189.7 -187.7 -185.7 -183.7 -181.7 -179.7 -177.7 -175.7 -173.7 -171.7 -169.7 -167.7 -165.7 -163.7 -161.7 -159.7 -157.7 -155.7 -153.7 -151.7 -149.7 -147.7 -145.7 -143.7 -141.7 -139.7 -137.7 -135.7 -133.7 -131.7 -129.7 -127.7 -125.7 -123.7 -121.7 -119.7 -117.7 -115.7 -113.7 -111.7 -109.7 -107.7 -105.7 -103.7 -101.7 -99.7 -97.7 -95.7 -93.7 -91.7 -89.7 -87.7 -85.7 -83.7 -81.7 -79.7 -77.7 -75.7 -73.7 -71.7 -69.7 -67.7 -65.7 -63.7 -61.7 -59.7 -57.7 -55.7 -53.7 -51.7 -49.7 -47.7 -45.7 -43.7 -41.7 -39.7 -37.7 -35.7 -33.7 -31.7 -29.7 -27.7 -25.7 -23.7 -21.7 -19.7 -17.7 -15.7 -13.7 -11.7 -9.69999999999999 -7.69999999999999 -5.69999999999999 -3.69999999999999 -1.69999999999999 0.300000000000011 2.30000000000001 4.30000000000001 6.30000000000001 8.30000000000001 10.3 12.3 14.3 16.3 18.3 20.3 22.3 24.3 26.3 28.3 30.3 32.3 34.3 36.3 38.3 40.3 42.3 44.3 46.3 48.3 50.3 52.3 54.3 56.3 58.3 60.3 62.3 64.3 66.3 68.3 70.3 72.3 74.3 76.3 78.3 80.3 82.3 84.3 86.3 88.3 90.3 92.3 94.3 96.3 98.3 100.3 102.3 104.3 106.3 108.3 110.3 112.3 114.3 116.3 118.3 120.3 122.3 124.3 126.3 128.3 130.3 132.3 134.3 136.3 138.3 140.3 142.3 144.3 146.3 148.3 150.3 152.3 154.3 156.3 158.3 160.3 162.3 164.3 166.3 168.3 170.3 172.3 174.3 176.3 178.3 180.3 182.3 184.3 186.3 188.3 190.3 192.3 194.3 196.3 198.3 200.3 202.3 204.3 206.3 208.3 210.3 212.3 214.3 216.3 218.3 220.3 222.3 224.3 226.3 228.3 230.3 232.3 234.3 236.3 238.3 240.3 242.3 244.3 246.3 248.3 250.3 252.3 254.3 256.3 258.3 260.3 262.3 264.3 266.3 268.3 270.3 272.3 274.3 276.3 278.3 280.3 282.3 284.3 286.3 288.3 290.3 292.3 294.3 296.3 298.3 300.3
Channel times (ms):
   1    -1.9500 
   2    -1.8500 
   3    -1.7500 
   4    -1.6500 
   5    -1.5500 
   6    -1.4495 
   7    -1.3500 
   8    -1.2500 
   9    -1.1500 
   10   -1.0500 
   11   -0.9500 
   12   -0.8500 
   13   -0.7500 
   14   -0.6500 
   15   -0.5500 
   16   -0.4500 
   17   -0.3500 
   18   -0.2500 
   19   -0.1500 
   20   -0.0500 
   21    0.0255 
   22    0.0550 
   23    0.0700 
   24    0.0950 
   25    0.1300 
   26    0.1750 
   27    0.2350 
   28    0.3150 
   29    0.4200 
   30    0.5600 
   31    0.7450 
   32    0.9900 
   33    1.3150 
   34    1.7450 
   35    2.3150 
   36    3.0750 
   37    4.0850 
   38    5.4250 
   39    7.2050 
   40    9.5700 
   41    12.6600
   42    22.7300
   43    39.3950
   44    48.1150
   45    48.5255
   46    48.5550
   47    48.5700
   48    48.5950
   49    48.6300
   50    48.6750
   51    48.7350
   52    48.8150
   53    48.9200
   54    49.0600
   55    49.2450
   56    49.4900
   57    49.8150
   58    50.2450
   59    50.8150
   60    51.5750
   61    52.5850
   62    53.9250
   63    55.7050
   64    58.0700
   65    61.1600
   66    71.2300
   67    87.8950
   68    97.1150
EM data:
Station Component      CH1            CH2            CH3            CH4            CH5            CH6            CH7            CH8            CH9           CH10           CH11           CH12           CH13           CH14           CH15           CH16           CH17           CH18           CH19           CH20           CH21           CH22           CH23           CH24           CH25           CH26           CH27           CH28           CH29           CH30           CH31           CH32           CH33           CH34           CH35           CH36           CH37           CH38           CH39           CH40           CH41           CH42           CH43           CH44           CH45           CH46           CH47           CH48           CH49           CH50           CH51           CH52           CH53           CH54           CH55           CH56           CH57           CH58           CH59           CH60           CH61           CH62           CH63           CH64           CH65           CH66           CH67           CH68      
 -298.7    X     -3.33067E-07   -1.66533E-07   -2.49800E-07   -2.77556E-07   -3.33067E-07   -2.57716E+00   -2.28669E+00   -2.04969E+00   -1.84272E+00   -1.67332E+00   -1.52575E+00   -1.40069E+00   -1.28003E+00   -1.18015E+00   -1.08259E+00   -1.00106E+00   -9.20813E-01   -8.53858E-01   -7.83255E-01   -7.27966E-01    1.94729E+00    1.89280E+00    1.85558E+00    1.79425E+00    1.70639E+00    1.60938E+00    1.49344E+00    1.35828E+00    1.21424E+00    1.05456E+00    8.86913E-01    7.12229E-01    5.45342E-01    3.87461E-01    2.50504E-01    1.43327E-01    7.11018E-02    2.81208E-02    8.40011E-03    1.73499E-03    2.26991E-04    4.08107E-07   -4.06576E-10   -1.21973E-10   -3.85931E+00   -3.63993E+00   -3.51887E+00   -3.32842E+00   -3.05526E+00   -2.75074E+00   -2.38211E+00   -1.95239E+00   -1.49563E+00   -1.00659E+00   -5.32097E-01   -9.59919E-02    2.29060E-01    4.24341E-01    4.65726E-01    3.81803E-01   -1.32231E+01    1.11610E-01    3.66790E-02    7.90737E-03    1.05893E-03    1.77636E-06    4.44089E-07   -7.49401E-07  
 -298.7    Y     -2.22045E-07    0.00000E+00   -1.11022E-07    0.00000E+00   -4.44089E-07   -8.34433E-03   -7.45892E-03   -6.72407E-03   -6.06803E-03   -5.52675E-03   -5.05179E-03   -4.64673E-03   -4.25471E-03   -3.92858E-03   -3.60897E-03   -3.34102E-03   -3.07634E-03   -2.85504E-03   -2.62092E-03   -2.43715E-03    6.32539E-03    6.04937E-03    5.92915E-03    5.74955E-03    5.49603E-03    5.20790E-03    4.85366E-03    4.43335E-03    3.98076E-03    3.47456E-03    2.93813E-03    2.37358E-03    1.82857E-03    1.30752E-03    8.50825E-04    4.89899E-04    2.44501E-04    9.72778E-05    2.92236E-05    6.06776E-06    7.97105E-07    3.79471E-10   -1.05710E-09   -5.42101E-10   -1.26436E-02   -1.17683E-02   -1.13760E-02   -1.07863E-02   -9.94427E-03   -8.99097E-03   -7.81902E-03   -6.43852E-03   -4.96092E-03   -3.36836E-03   -1.81216E-03   -3.69593E-04    7.17870E-04    1.38423E-03    1.54166E-03    1.27665E-03   -4.31480E-02    3.79918E-04    1.26343E-04    2.72005E-05    3.77476E-06    0.00000E+00    2.22045E-07    2.22045E-07  
 -298.7    Z     -5.55112E-08    5.55112E-08    1.66533E-07   -5.55112E-08    1.11022E-07   -3.18282E+00   -2.80141E+00   -2.52357E+00   -2.27965E+00   -2.07853E+00   -1.90223E+00   -1.75201E+00   -1.60632E+00   -1.48517E+00   -1.36633E+00   -1.26662E+00   -1.16811E+00   -1.08562E+00   -9.98330E-01   -9.29756E-01    2.45508E+00    2.30137E+00    2.24129E+00    2.15848E+00    2.05203E+00    1.93929E+00    1.80566E+00    1.64934E+00    1.48170E+00    1.29444E+00    1.09607E+00    8.87239E-01    6.85391E-01    4.91929E-01    3.21665E-01    1.86314E-01    9.36178E-02    3.75371E-02    1.13718E-02    2.38269E-03    3.16097E-04    5.83924E-07   -1.62630E-10   -4.06576E-10   -4.88841E+00   -4.47808E+00   -4.30770E+00   -4.06287E+00   -3.72984E+00   -3.36555E+00   -2.92538E+00   -2.41026E+00   -1.85958E+00   -1.26608E+00   -6.85603E-01   -1.46713E-01    2.60834E-01    5.12337E-01    5.74426E-01    4.78404E-01    1.15663E+01    1.44258E-01    4.82437E-02    1.05988E-02    1.44645E-03    2.49800E-06    0.00000E+00   -4.44089E-07  
 -296.7    X     -1.24900E-07   -9.02056E-08   -4.85723E-08   -4.37150E-07   -9.71445E-08   -2.69104E+00   -2.38695E+00   -2.13920E+00   -1.92291E+00   -1.74592E+00   -1.59176E+00   -1.46115E+00   -1.33514E+00   -1.23085E+00   -1.12900E+00   -1.04390E+00   -9.60137E-01   -8.90260E-01   -8.16583E-01   -7.58894E-01    2.03530E+00    1.97756E+00    1.93848E+00    1.87422E+00    1.78225E+00    1.68076E+00    1.55952E+00    1.41818E+00    1.26760E+00    1.10070E+00    9.25531E-01    7.43058E-01    5.68792E-01    4.03996E-01    2.61102E-01    1.49334E-01    7.40523E-02    2.92753E-02    8.74119E-03    1.80465E-03    2.36005E-04    4.24194E-07   -2.71051E-10   -4.60786E-10   -4.03098E+00   -3.80059E+00   -3.67387E+00   -3.47470E+00   -3.18921E+00   -2.87103E+00   -2.48595E+00   -2.03712E+00   -1.56015E+00   -1.04957E+00   -5.54309E-01   -9.92631E-02    2.39741E-01    4.43216E-01    4.86083E-01    3.98282E-01   -1.31890E+01    1.16312E-01    3.82030E-02    8.23151E-03    1.10154E-03    1.65146E-06    4.02456E-07   -7.14706E-07  
 -296.7    Y      1.38778E-07    2.49800E-07    5.55112E-08    1.11022E-07    0.00000E+00    3.91684E-03    3.30003E-03    2.94118E-03    2.64042E-03    2.39622E-03    2.18434E-03    2.00535E-03    1.83289E-03    1.69059E-03    1.55169E-03    1.43585E-03    1.32210E-03    1.22721E-03    1.12739E-03    1.04929E-03   -3.22374E-03   -2.90773E-03   -2.79169E-03   -2.64298E-03   -2.47282E-03   -2.31232E-03   -2.13586E-03   -1.93700E-03   -1.72744E-03   -1.49647E-03   -1.25526E-03   -1.00531E-03   -7.67871E-04   -5.44413E-04   -3.51414E-04   -2.00864E-04   -9.96034E-05   -3.93954E-05   -1.17736E-05   -2.43370E-06   -3.18430E-07   -5.14996E-10    1.89735E-10    2.03288E-10    6.18499E-03    5.48160E-03    5.21113E-03    4.84503E-03    4.38623E-03    3.91873E-03    3.37782E-03    2.75871E-03    2.10486E-03    1.40801E-03    7.34607E-04    1.18627E-04   -3.37119E-04   -6.07764E-04   -6.61332E-04   -5.39152E-04    6.50995E-02   -1.56680E-04   -5.10980E-05   -1.14631E-05   -1.30451E-06   -1.38778E-07    1.38778E-07    2.49800E-07  
 -296.7    Z      2.22045E-07   -1.11022E-07    5.55112E-07   -1.11022E-07    6.66134E-07   -3.25763E+00   -2.86698E+00   -2.58250E+00   -2.33276E+00   -2.12687E+00   -1.94639E+00   -1.79261E+00   -1.64348E+00   -1.51948E+00   -1.39785E+00   -1.29580E+00   -1.19498E+00   -1.11057E+00   -1.02124E+00   -9.51070E-01    2.51356E+00    2.35596E+00    2.29439E+00    2.20955E+00    2.10053E+00    1.98506E+00    1.84821E+00    1.68814E+00    1.51648E+00    1.32474E+00    1.12164E+00    9.07856E-01    7.01245E-01    5.03247E-01    3.29019E-01    1.90544E-01    9.57273E-02    3.83760E-02    1.16238E-02    2.43500E-03    3.22976E-04    5.96636E-07    5.42101E-11    1.62630E-10   -5.00369E+00   -4.58327E+00   -4.40879E+00   -4.15809E+00   -3.81714E+00   -3.44420E+00   -2.99362E+00   -2.46633E+00   -1.90267E+00   -1.29524E+00   -7.01173E-01   -1.49734E-01    2.67235E-01    5.24468E-01    5.87861E-01    4.89493E-01    1.07727E+01    1.47544E-01    4.93313E-02    1.08350E-02    1.47871E-03    2.66454E-06    5.55112E-07   -1.11022E-07  
 -294.7    X     -1.11022E-06   -9.99201E-07   -2.22045E-07   -1.55431E-06    1.11022E-07   -2.77125E+00   -2.45754E+00   -2.20224E+00   -1.97940E+00   -1.79708E+00   -1.63829E+00   -1.50377E+00   -1.37400E+00   -1.26661E+00   -1.16173E+00   -1.07411E+00   -9.87881E-01   -9.15947E-01   -8.40105E-01   -7.80723E-01    2.09736E+00    2.03721E+00    1.99680E+00    1.93045E+00    1.83560E+00    1.73098E+00    1.60600E+00    1.46034E+00    1.30516E+00    1.13320E+00    9.52737E-01    7.64788E-01    5.85329E-01    4.15662E-01    2.68585E-01    1.53578E-01    7.61385E-02    3.00922E-02    8.98274E-03    1.85403E-03    2.42400E-04    4.35578E-07   -1.49078E-10   -3.11708E-10   -4.15209E+00   -3.91372E+00   -3.78299E+00   -3.57766E+00   -3.28348E+00   -2.95571E+00   -2.55906E+00   -2.09680E+00   -1.60561E+00   -1.07988E+00   -5.69997E-01   -1.01610E-01    2.47233E-01    4.56495E-01    5.00423E-01    4.09901E-01   -1.31562E+01    1.19633E-01    3.92808E-02    8.46068E-03    1.13154E-03    1.55431E-06   -1.11022E-07   -5.55112E-07  
 -294.7    Y     -2.39392E-07    1.42247E-07    2.08167E-08    2.18575E-07    2.42861E-08   -2.33094E-03   -2.14490E-03   -1.96213E-03   -1.78797E-03   -1.64079E-03   -1.50949E-03   -1.39596E-03   -1.28518E-03   -1.19176E-03   -1.09949E-03   -1.02109E-03   -9.43370E-04   -8.77891E-04   -8.08015E-04   -7.52822E-04    1.73672E-03    1.62249E-03    1.59687E-03    1.56682E-03    1.52186E-03    1.46097E-03    1.37694E-03    1.27139E-03    1.15442E-03    1.02059E-03    8.75381E-04    7.18618E-04    5.63096E-04    4.10138E-04    2.72133E-04    1.59848E-04    8.13597E-05    3.30175E-05    1.01101E-05    2.13782E-06    2.85884E-07    1.21973E-10    2.03288E-11   -3.52366E-10   -3.59153E-03   -3.28338E-03   -3.18479E-03   -3.04833E-03   -2.84774E-03   -2.60462E-03   -2.29004E-03   -1.90859E-03   -1.49285E-03   -1.03728E-03   -5.84024E-04   -1.54574E-04    1.78555E-04    3.93553E-04    4.57898E-04    3.90066E-04   -6.56691E-02    1.22881E-04    4.15987E-05    9.16628E-06    1.55084E-06    1.76942E-07   -1.21431E-07    3.81639E-07  
 -294.7    Z      3.33067E-07    1.66533E-07    1.66533E-07    0.00000E+00    3.88578E-07   -3.32751E+00   -2.92811E+00   -2.63749E+00   -2.38238E+00   -2.17206E+00   -1.98771E+00   -1.83063E+00   -1.67831E+00   -1.55165E+00   -1.42742E+00   -1.32319E+00   -1.22022E+00   -1.13401E+00   -1.04278E+00   -9.71114E-01    2.56847E+00    2.40679E+00    2.34377E+00    2.25700E+00    2.14557E+00    2.02760E+00    1.88778E+00    1.72425E+00    1.54888E+00    1.35300E+00    1.14553E+00    9.27148E-01    7.16107E-01    5.13878E-01    3.35943E-01    1.94537E-01    9.77234E-02    3.91718E-02    1.18634E-02    2.48489E-03    3.29550E-04    6.08888E-07    5.42101E-10    3.25261E-10   -5.11199E+00   -4.68145E+00   -4.50302E+00   -4.24681E+00   -3.89846E+00   -3.51751E+00   -3.05727E+00   -2.51869E+00   -1.94298E+00   -1.32257E+00   -7.15842E-01   -1.52680E-01    2.73115E-01    5.35747E-01    6.00406E-01    4.99883E-01    9.84304E+00    1.50640E-01    5.03600E-02    1.10590E-02    1.50896E-03    2.27596E-06    4.44089E-07   -2.22045E-07  
 -292.7    X     -5.55112E-07   -3.88578E-07   -4.99600E-07   -6.66134E-07   -3.88578E-07   -2.85396E+00   -2.53040E+00   -2.26721E+00   -2.03755E+00   -1.84967E+00   -1.68607E+00   -1.54749E+00   -1.41383E+00   -1.30323E+00   -1.19523E+00   -1.10501E+00   -1.01623E+00   -9.42174E-01   -8.64103E-01   -8.02983E-01    2.16120E+00    2.09899E+00    2.05726E+00    1.98880E+00    1.89095E+00    1.78304E+00    1.65415E+00    1.50395E+00    1.34397E+00    1.16672E+00    9.80742E-01    7.87104E-01    6.02269E-01    4.27578E-01    2.76202E-01    1.57882E-01    7.82463E-02    3.09142E-02    9.22474E-03    1.90327E-03    2.48751E-04    4.46664E-07    0.00000E+00   -1.35525E-10   -4.27634E+00   -4.03047E+00   -3.89569E+00   -3.68405E+00   -3.38087E+00   -3.04312E+00   -2.63445E+00   -2.15825E+00   -1.65232E+00   -1.11090E+00   -5.85930E-01   -1.03810E-01    2.55115E-01    4.70257E-01    5.15194E-01    4.21815E-01   -1.28436E+01    1.23006E-01    4.03698E-02    8.69105E-03    1.16196E-03    1.72085E-06    2.22045E-07   -7.21645E-07  
 -292.7    Y     -4.44089E-07   -1.66533E-07   -3.33067E-07   -3.88578E-07   -3.33067E-07   -1.39025E-02   -1.23504E-02   -1.10805E-02   -9.96164E-03   -9.04421E-03   -8.24446E-03   -7.56628E-03   -6.91189E-03   -6.36982E-03   -5.84044E-03   -5.39802E-03   -4.96243E-03   -4.59902E-03   -4.21573E-03   -3.91558E-03    1.06453E-02    1.02171E-02    1.00071E-02    9.68414E-03    9.22781E-03    8.71637E-03    8.09587E-03    7.36674E-03    6.58749E-03    5.72246E-03    4.81330E-03    3.86508E-03    2.95855E-03    2.10071E-03    1.35678E-03    7.75187E-04    3.83883E-04    1.51507E-04    4.51511E-05    9.30158E-06    1.21354E-06    1.96850E-09   -3.32037E-10   -3.04932E-10   -2.10139E-02   -1.96115E-02   -1.89448E-02   -1.79296E-02   -1.64819E-02   -1.48554E-02   -1.28717E-02   -1.05502E-02   -8.07954E-03   -5.43265E-03   -2.86349E-03   -5.02376E-04    1.25666E-03    2.31187E-03    2.53192E-03    2.07262E-03   -3.49349E-02    6.04128E-04    1.98397E-04    4.22440E-05    5.93969E-06    1.66533E-07    5.55112E-07   -5.55112E-08  
 -292.7    Z      3.33067E-07    3.88578E-07    2.22045E-07    3.88578E-07    4.44089E-07   -3.41632E+00   -3.00593E+00   -2.70742E+00   -2.44541E+00   -2.22942E+00   -2.04010E+00   -1.87881E+00   -1.72240E+00   -1.59236E+00   -1.46481E+00   -1.35781E+00   -1.25211E+00   -1.16360E+00   -1.06996E+00   -9.96396E-01    2.63795E+00    2.47162E+00    2.40682E+00    2.31764E+00    2.20315E+00    2.08193E+00    1.93829E+00    1.77030E+00    1.59016E+00    1.38896E+00    1.17588E+00    9.51614E-01    7.34919E-01    5.27305E-01    3.44667E-01    1.99553E-01    1.00224E-01    4.01661E-02    1.21619E-02    2.54685E-03    3.37694E-04    6.23413E-07   -9.48677E-11   -3.04932E-11   -5.24890E+00   -4.80632E+00   -4.62300E+00   -4.35982E+00   -4.00206E+00   -3.61085E+00   -3.13824E+00   -2.58522E+00   -1.99411E+00   -1.35715E+00   -7.34306E-01   -1.56251E-01    2.80722E-01    5.50150E-01    6.16352E-01    5.13041E-01    8.98412E+00    1.54536E-01    5.16494E-02    1.13388E-02    1.54649E-03    2.55351E-06    2.77556E-07   -1.11022E-07  
 -290.7    X     -6.80012E-07   -3.88578E-07   -3.05311E-07   -4.44089E-07   -5.55112E-08   -2.99062E+00   -2.65058E+00   -2.37456E+00   -2.13377E+00   -1.93682E+00   -1.76535E+00   -1.62013E+00   -1.48007E+00   -1.36419E+00   -1.25105E+00   -1.15654E+00   -1.06355E+00   -9.85990E-01   -9.04232E-01   -8.40229E-01    2.26718E+00    2.20054E+00    2.15649E+00    2.08446E+00    1.98170E+00    1.86845E+00    1.73324E+00    1.57569E+00    1.40791E+00    1.22205E+00    1.02708E+00    8.24132E-01    6.30462E-01    4.47479E-01    2.88974E-01    1.65131E-01    8.18114E-02    3.23113E-02    9.63814E-03    1.98784E-03    2.59711E-04    4.66061E-07    1.43996E-11   -2.28699E-11   -4.48312E+00   -4.22317E+00   -4.08146E+00   -3.85929E+00   -3.54133E+00   -3.18725E+00   -2.75893E+00   -2.25988E+00   -1.72977E+00   -1.16257E+00   -6.12705E-01   -1.07861E-01    2.67833E-01    4.92853E-01    5.39619E-01    4.41620E-01   -1.27816E+01    1.28676E-01    4.22110E-02    9.08283E-03    1.21403E-03    2.15106E-06    6.52256E-07   -6.66134E-07  
 -290.7    Y      1.11022E-07    5.55112E-08   -5.55112E-07    0.00000E+00   -5.55112E-07    2.27002E-03    1.77491E-03    1.53350E-03    1.34470E-03    1.19760E-03    1.07350E-03    9.71723E-04    8.75994E-04    7.98306E-04    7.24476E-04    6.63886E-04    6.05405E-04    5.57554E-04    5.07955E-04    4.69737E-04   -2.10498E-03   -1.80409E-03   -1.69948E-03   -1.57120E-03   -1.43372E-03   -1.31314E-03   -1.18833E-03   -1.05387E-03   -9.17191E-04   -7.72014E-04   -6.26702E-04   -4.83220E-04   -3.54168E-04   -2.39809E-04   -1.47250E-04   -7.98302E-05   -3.74842E-05   -1.39805E-05   -3.92916E-06   -7.61574E-07   -9.32380E-08   -4.40457E-11    1.20279E-10    1.18585E-10    3.74094E-03    3.14946E-03    2.93914E-03    2.66927E-03    2.35484E-03    2.05615E-03    1.72849E-03    1.36816E-03    1.00009E-03    6.21642E-04    2.70950E-04   -3.25018E-05   -2.39475E-04   -3.43059E-04   -3.38285E-04   -2.56239E-04    4.34064E-02   -6.46150E-05   -1.94289E-05   -3.94129E-06   -2.77556E-07    5.55112E-08    5.55112E-07    3.88578E-07  
 -290.7    Z      1.11022E-07    1.38778E-07    1.66533E-07   -3.33067E-07    4.16334E-07   -3.48827E+00   -3.06890E+00   -2.76407E+00   -2.49652E+00   -2.27597E+00   -2.08267E+00   -1.91798E+00   -1.75828E+00   -1.62551E+00   -1.49528E+00   -1.38603E+00   -1.27811E+00   -1.18775E+00   -1.09214E+00   -1.01704E+00    2.69441E+00    2.52394E+00    2.45766E+00    2.36650E+00    2.24954E+00    2.12575E+00    1.97906E+00    1.80750E+00    1.62354E+00    1.41808E+00    1.20049E+00    9.71492E-01    7.50232E-01    5.38258E-01    3.51799E-01    2.03664E-01    1.02279E-01    4.09850E-02    1.24084E-02    2.59814E-03    3.44451E-04    6.35695E-07   -1.37219E-10   -1.71101E-10   -5.36031E+00   -4.90741E+00   -4.72005E+00   -4.45119E+00   -4.08584E+00   -3.68637E+00   -3.20381E+00   -2.63917E+00   -2.03564E+00   -1.38532E+00   -7.49426E-01   -1.59291E-01    2.86778E-01    5.61771E-01    6.29277E-01    5.23744E-01    8.18948E+00    1.57725E-01    5.27080E-02    1.15696E-02    1.57790E-03    2.33147E-06    2.49800E-07   -1.94289E-07  
