Data type: dB/dt; UNIT: nT/s
Number of stations: 301
Stations (m): -299.7 -297.7 -295.7 -293.7 -291.7 -289.7 -287.7 -285.7 -283.7 -281.7 -279.7 -277.7 -275.7 -273.7 -271.7 -269.7 -267.7 -265.7 -263.7 -261.7 -259.7 -257.7 -255.7 -253.7 -251.7 -249.7 -247.7 -245.7 -243.7 -241.7 -239.7 -237.7 -235.7 -233.7 -231.7 -229.7 -227.7 -225.7 -223.7 -221.7 -219.7 -217.7 -215.7 -213.7 -211.7 -209.7 -207.7 -205.7 -203.7 -201.7 -199.7 -197.7 -195.7 -193.7 -191.7 -189.7 -187.7 -185.7 -183.7 -181.7 -179.7 -177.7 -175.7 -173.7 -171.7 -169.7 -167.7 -165.7 -163.7 -161.7 -159.7 -157.7 -155.7 -153.7 -151.7 -149.7 -147.7 -145.7 -143.7 -141.7 -139.7 -137.7 -135.7 -133.7 -131.7 -129.7 -127.7 -125.7 -123.7 -121.7 -119.7 -117.7 -115.7 -113.7 -111.7 -109.7 -107.7 -105.7 -103.7 -101.7 -99.7 -97.7 -95.7 -93.7 -91.7 -89.7 -87.7 -85.7 -83.7 -81.7 -79.7 -77.7 -75.7 -73.7 -71.7 -69.7 -67.7 -65.7 -63.7 -61.7 -59.7 -57.7 -55.7 -53.7 -51.7 -49.7 -47.7 -45.7 -43.7 -41.7 -39.7 -37.7 -35.7 -33.7 -31.7 -29.7 -27.7 -25.7 -23.7 -21.7 -19.7 -17.7 -15.7 -13.7 -11.7 -9.69999999999999 -7.69999999999999 -5.69999999999999 -3.69999999999999 -1.69999999999999 0.300000000000011 2.30000000000001 4.30000000000001 6.30000000000001 8.30000000000001 10.3 12.3 14.3 16.3 18.3 20.3 22.3 24.3 26.3 28.3 30.3 32.3 34.3 36.3 38.3 40.3 42.3 44.3 46.3 48.3 50.3 52.3 54.3 56.3 58.3 60.3 62.3 64.3 66.3 68.3 70.3 72.3 74.3 76.3 78.3 80.3 82.3 84.3 86.3 88.3 90.3 92.3 94.3 96.3 98.3 100.3 102.3 104.3 106.3 108.3 110.3 112.3 114.3 116.3 118.3 120.3 122.3 124.3 126.3 128.3 130.3 132.3 134.3 136.3 138.3 140.3 142.3 144.3 146.3 148.3 150.3 152.3 154.3 156.3 158.3 160.3 162.3 164.3 166.3 168.3 170.3 172.3 174.3 176.3 178.3 180.3 182.3 184.3 186.3 188.3 190.3 192.3 194.3 196.3 198.3 200.3 202.3 204.3 206.3 208.3 210.3 212.3 214.3 216.3 218.3 220.3 222.3 224.3 226.3 228.3 230.3 232.3 234.3 236.3 238.3 240.3 242.3 244.3 246.3 248.3 250.3 252.3 254.3 256.3 258.3 260.3 262.3 264.3 266.3 268.3 270.3 272.3 274.3 276.3 278.3 280.3 282.3 284.3 286.3 288.3 290.3 292.3 294.3 296.3 298.3 300.3
Channel times (ms):
   1    -1.9500 
   2    -1.8500 
   3    -1.7500 
   4    -1.6500 
   5    -1.5500 
   6    -1.4495 
   7    -1.3500 
   8    -1.2500 
   9    -1.1500 
   10   -1.0500 
   11   -0.9500 
   12   -0.8500 
   13   -0.7500 
   14   -0.6500 
   15   -0.5500 
   16   -0.4500 
   17   -0.3500 
   18   -0.2500 
   19   -0.1500 
   20   -0.0500 
   21    0.0255 
   22    0.0550 
   23    0.0700 
   24    0.0950 
   25    0.1300 
   26    0.1750 
   27    0.2350 
   28    0.3150 
   29    0.4200 
   30    0.5600 
   31    0.7450 
   32    0.9900 
   33    1.3150 
   34    1.7450 
   35    2.3150 
   36    3.0750 
   37    4.0850 
   38    5.4250 
   39    7.2050 
   40    9.5700 
   41    12.6600
   42    22.7300
   43    39.3950
   44    48.1150
   45    48.5255
   46    48.5550
   47    48.5700
   48    48.5950
   49    48.6300
   50    48.6750
   51    48.7350
   52    48.8150
   53    48.9200
   54    49.0600
   55    49.2450
   56    49.4900
   57    49.8150
   58    50.2450
   59    50.8150
   60    51.5750
   61    52.5850
   62    53.9250
   63    55.7050
   64    58.0700
   65    61.1600
   66    71.2300
   67    87.8950
   68    97.1150
EM data:
Station Component      CH1            CH2            CH3            CH4            CH5            CH6            CH7            CH8            CH9           CH10           CH11           CH12           CH13           CH14           CH15           CH16           CH17           CH18           CH19           CH20           CH21           CH22           CH23           CH24           CH25           CH26           CH27           CH28           CH29           CH30           CH31           CH32           CH33           CH34           CH35           CH36           CH37           CH38           CH39           CH40           CH41           CH42           CH43           CH44           CH45           CH46           CH47           CH48           CH49           CH50           CH51           CH52           CH53           CH54           CH55           CH56           CH57           CH58           CH59           CH60           CH61           CH62           CH63           CH64           CH65           CH66           CH67           CH68      
 -298.7    X      1.66533E-07    8.32667E-08    2.08167E-07    3.05311E-07    1.94289E-07   -2.52572E+00   -2.30462E+00   -2.08993E+00   -1.89747E+00   -1.73705E+00   -1.59522E+00   -1.47351E+00   -1.35474E+00   -1.25545E+00   -1.15759E+00   -1.07514E+00   -9.93368E-01   -9.24656E-01   -8.51713E-01   -7.94243E-01    1.75638E+00    1.78453E+00    1.76742E+00    1.72587E+00    1.65572E+00    1.57318E+00    1.47186E+00    1.35150E+00    1.22091E+00    1.07328E+00    9.14865E-01    7.45846E-01    5.80232E-01    4.19370E-01    2.76014E-01    1.60778E-01    8.11458E-02    3.26414E-02    9.90647E-03    2.07652E-03    2.75247E-04    5.06390E-07    1.35525E-11    2.03288E-10   -3.67055E+00   -3.58452E+00   -3.49365E+00   -3.33205E+00   -3.08360E+00   -2.79748E+00   -2.44516E+00   -2.02873E+00   -1.57983E+00   -1.09171E+00   -6.09462E-01   -1.56378E-01    1.91851E-01    4.12781E-01    4.75123E-01    4.01850E-01   -9.92401E-02    1.23704E-01    4.16685E-02    9.19957E-03    1.25823E-03    2.02616E-06   -6.93889E-08    2.77556E-08  
 -298.7    Y      6.76542E-08   -3.12250E-08   -1.05818E-07    5.03070E-08   -1.11022E-07    9.45849E-04    1.04160E-03    9.44200E-04    8.57292E-04    7.83961E-04    7.18529E-04    6.62435E-04    6.07627E-04    5.61928E-04    5.17162E-04    4.79560E-04    4.42484E-04    4.11550E-04    3.78835E-04    3.53215E-04   -3.19477E-04   -6.45621E-04   -7.18270E-04   -7.59495E-04   -7.51002E-04   -7.15646E-04   -6.68914E-04   -6.14127E-04   -5.53838E-04   -4.84401E-04   -4.09272E-04   -3.29427E-04   -2.52277E-04   -1.78944E-04   -1.15321E-04   -6.56823E-05   -3.23938E-05   -1.27114E-05   -3.75779E-06   -7.65534E-07   -9.85024E-08   -1.00873E-10    7.37382E-11    6.03048E-11    9.41317E-04    1.40773E-03    1.48953E-03    1.50712E-03    1.42939E-03    1.30189E-03    1.13968E-03    9.48921E-04    7.42154E-04    5.15483E-04    2.90903E-04    8.07054E-05   -7.91233E-05   -1.78928E-04   -2.05414E-04   -1.71411E-04    3.52119E-02   -5.06296E-05   -1.67557E-05   -3.48506E-06   -4.90927E-07   -2.01228E-07   -3.98986E-08   -1.64799E-07  
 -298.7    Z      1.94289E-07    1.11022E-07    2.22045E-07    1.11022E-07    1.38778E-07   -3.40583E+00   -3.02237E+00   -2.74570E+00   -2.49871E+00   -2.29222E+00   -2.10915E+00   -1.95162E+00   -1.79754E+00   -1.66843E+00   -1.54090E+00   -1.43323E+00   -1.32623E+00   -1.23615E+00   -1.14034E+00   -1.06471E+00    2.56648E+00    2.39557E+00    2.33404E+00    2.25235E+00    2.14976E+00    2.04155E+00    1.91242E+00    1.75958E+00    1.59341E+00    1.40495E+00    1.20188E+00    9.84149E-01    7.69531E-01    5.59591E-01    3.70936E-01    2.17825E-01    1.10912E-01    4.50565E-02    1.38187E-02    2.92872E-03    3.92499E-04    7.38106E-07    1.09691E-10   -2.56227E-11   -5.24224E+00   -4.79115E+00   -4.61240E+00   -4.35972E+00   -4.01820E+00   -3.64378E+00   -3.18819E+00   -2.65006E+00   -2.06870E+00   -1.43489E+00   -8.06560E-01   -2.13705E-01    2.44809E-01    5.38940E-01    6.25906E-01    5.33523E-01    2.36787E+01    1.67278E-01    5.70018E-02    1.27523E-02    1.76917E-03    2.91434E-06    5.55112E-08    5.55112E-08  
 -296.7    X      3.46945E-08    2.15106E-07    2.84495E-07    1.52656E-07    1.52656E-07   -2.64695E+00   -2.41414E+00   -2.18906E+00   -1.98732E+00   -1.81920E+00   -1.67057E+00   -1.54303E+00   -1.41858E+00   -1.31455E+00   -1.21203E+00   -1.12565E+00   -1.03999E+00   -9.68011E-01   -8.91608E-01   -8.31415E-01    1.84347E+00    1.87094E+00    1.85259E+00    1.80871E+00    1.73501E+00    1.64842E+00    1.54217E+00    1.41597E+00    1.27906E+00    1.12430E+00    9.58255E-01    7.81119E-01    6.07580E-01    4.39057E-01    2.88910E-01    1.68249E-01    8.48937E-02    3.41390E-02    1.03577E-02    2.17040E-03    2.87599E-04    5.28765E-07   -2.16840E-10    0.00000E+00   -3.84956E+00   -3.75614E+00   -3.66031E+00   -3.49052E+00   -3.22992E+00   -2.93003E+00   -2.56085E+00   -2.12451E+00   -1.65421E+00   -1.14285E+00   -6.37710E-01   -1.63195E-01    2.01414E-01    4.32629E-01    4.97725E-01    4.20828E-01   -1.08292E+00    1.29465E-01    4.35930E-02    9.62071E-03    1.31533E-03    2.22738E-06   -6.93889E-08    4.16334E-08  
 -296.7    Y      6.93889E-08   -1.38778E-08    1.38778E-08   -5.37764E-08    6.76542E-08   -7.61044E-03   -6.67000E-03   -6.04289E-03   -5.48256E-03   -5.01665E-03   -4.60559E-03   -4.25311E-03   -3.90926E-03   -3.62197E-03   -3.33869E-03   -3.09994E-03   -2.86311E-03   -2.66408E-03   -2.45270E-03   -2.28612E-03    5.86555E-03    5.43310E-03    5.26289E-03    5.05228E-03    4.81042E-03    4.56382E-03    4.26815E-03    3.91708E-03    3.53725E-03    3.10941E-03    2.65124E-03    2.16261E-03    1.68343E-03    1.21734E-03    8.01397E-04    4.66727E-04    2.35418E-04    9.46066E-05    2.86785E-05    6.00361E-06    7.94461E-07    8.65668E-10   -4.28599E-10   -4.25211E-10   -1.17746E-02   -1.06941E-02   -1.02467E-02   -9.64288E-03   -8.86615E-03   -8.02893E-03   -7.00940E-03   -5.80521E-03   -4.50936E-03   -3.10341E-03   -1.71679E-03   -4.15662E-04    5.83174E-04    1.21447E-03    1.38833E-03    1.17093E-03    3.77785E-02    3.59482E-04    1.20758E-04    2.68084E-05    3.42087E-06   -1.30104E-07   -2.04697E-07   -1.11022E-07  
 -296.7    Z      8.32667E-08    1.59595E-07    1.94289E-07    1.80411E-07    1.38778E-07   -3.44923E+00   -3.06035E+00   -2.78025E+00   -2.53020E+00   -2.32114E+00   -2.13578E+00   -1.97629E+00   -1.82028E+00   -1.68954E+00   -1.56041E+00   -1.45139E+00   -1.34304E+00   -1.25182E+00   -1.15480E+00   -1.07823E+00    2.60048E+00    2.42604E+00    2.36348E+00    2.28059E+00    2.17666E+00    2.06710E+00    1.93637E+00    1.78165E+00    1.61343E+00    1.42263E+00    1.21703E+00    9.96584E-01    7.79273E-01    5.66689E-01    3.75649E-01    2.20597E-01    1.12325E-01    4.56313E-02    1.39951E-02    2.96613E-03    3.97512E-04    7.47117E-07   -1.89735E-10   -2.77827E-10   -5.31093E+00   -4.85193E+00   -4.67054E+00   -4.41442E+00   -4.06852E+00   -3.68942E+00   -3.22815E+00   -2.68332E+00   -2.09470E+00   -1.45296E+00   -8.16747E-01   -2.16435E-01    2.47865E-01    5.45725E-01    6.33811E-01    5.40278E-01    2.42260E+01    1.69405E-01    5.77279E-02    1.29151E-02    1.79180E-03    2.99066E-06    6.93889E-08    1.17961E-07  
 -294.7    X      0.00000E+00    1.11022E-07    2.22045E-07    1.11022E-07    5.55112E-08   -2.67558E+00   -2.44039E+00   -2.21282E+00   -2.00885E+00   -1.83886E+00   -1.68859E+00   -1.55964E+00   -1.43383E+00   -1.32866E+00   -1.22501E+00   -1.13769E+00   -1.05110E+00   -9.78337E-01   -9.01104E-01   -8.40258E-01    1.86313E+00    1.89136E+00    1.87289E+00    1.82859E+00    1.75409E+00    1.66653E+00    1.55909E+00    1.43148E+00    1.29304E+00    1.13656E+00    9.68661E-01    7.89564E-01    6.14116E-01    4.43749E-01    2.91974E-01    1.70018E-01    8.57776E-02    3.44905E-02    1.04632E-02    2.19221E-03    2.90453E-04    5.33753E-07   -1.08420E-10   -1.08420E-10   -3.89054E+00   -3.79687E+00   -3.70012E+00   -3.52855E+00   -3.26512E+00   -2.96194E+00   -2.58869E+00   -2.14756E+00   -1.67209E+00   -1.15514E+00   -6.44487E-01   -1.64821E-01    2.03719E-01    4.37392E-01    5.03135E-01    4.25358E-01   -1.12470E+00    1.30830E-01    4.40465E-02    9.71917E-03    1.32855E-03    2.16493E-06   -1.66533E-07   -1.66533E-07  
 -294.7    Y      7.28584E-08    1.45717E-07    2.53270E-07    9.71445E-08    1.38778E-08   -2.30611E-03   -1.97021E-03   -1.77973E-03   -1.60813E-03   -1.46694E-03   -1.34340E-03   -1.23791E-03   -1.13529E-03   -1.04988E-03   -9.65719E-04   -8.95010E-04   -8.24818E-04   -7.65995E-04   -7.03467E-04   -6.54279E-04    1.83836E-03    1.67670E-03    1.60348E-03    1.52200E-03    1.44285E-03    1.36801E-03    1.27717E-03    1.16830E-03    1.05155E-03    9.21671E-04    7.83934E-04    6.37937E-04    4.95301E-04    3.56952E-04    2.33894E-04    1.35377E-04    6.77701E-05    2.69896E-05    8.10178E-06    1.67928E-06    2.20677E-07    9.58180E-10    3.95644E-10    5.79476E-10   -3.60401E-03   -3.23333E-03   -3.06595E-03   -2.85817E-03   -2.61717E-03   -2.36703E-03   -2.06113E-03   -1.69894E-03   -1.31138E-03   -8.94184E-04   -4.85554E-04   -1.04364E-04    1.86396E-04    3.67720E-04    4.14262E-04    3.46462E-04    6.93051E-02    1.04496E-04    3.49616E-05    7.66054E-06    8.18789E-07   -1.00614E-07   -2.15106E-07   -2.77556E-08  
 -294.7    Z      1.38778E-07    1.38778E-07    1.11022E-07    2.22045E-07    1.11022E-07   -3.52843E+00   -3.13024E+00   -2.84364E+00   -2.58780E+00   -2.37392E+00   -2.18429E+00   -2.02112E+00   -1.86153E+00   -1.72779E+00   -1.59570E+00   -1.48418E+00   -1.37335E+00   -1.28005E+00   -1.18082E+00   -1.10250E+00    2.66127E+00    2.48217E+00    2.41804E+00    2.33314E+00    2.22674E+00    2.11461E+00    1.98084E+00    1.82252E+00    1.65038E+00    1.45515E+00    1.24479E+00    1.01925E+00    7.96941E-01    5.79486E-01    3.84092E-01    2.25529E-01    1.14821E-01    4.66384E-02    1.43018E-02    3.03061E-03    4.06086E-04    7.63459E-07    1.37643E-10    2.14935E-10   -5.43380E+00   -4.96321E+00   -4.77746E+00   -4.51531E+00   -4.16138E+00   -3.77353E+00   -3.30165E+00   -2.74430E+00   -2.14219E+00   -1.48575E+00   -8.35011E-01   -2.21033E-01    2.53783E-01    5.58325E-01    6.48301E-01    5.52545E-01    2.37824E+01    1.73199E-01    5.90101E-02    1.31992E-02    1.83087E-03    3.02536E-06   -2.77556E-08    1.11022E-07  
 -292.7    X      1.04083E-07    1.73472E-07    1.87350E-07    1.80411E-07    1.94289E-07   -2.81372E+00   -2.56486E+00   -2.32553E+00   -2.11107E+00   -1.93236E+00   -1.77438E+00   -1.63882E+00   -1.50656E+00   -1.39601E+00   -1.28706E+00   -1.19528E+00   -1.10426E+00   -1.02779E+00   -9.46626E-01   -8.82682E-01    1.96313E+00    1.98968E+00    1.96965E+00    1.92261E+00    1.84404E+00    1.75190E+00    1.63889E+00    1.50469E+00    1.35910E+00    1.19455E+00    1.01802E+00    8.29719E-01    6.45277E-01    4.66203E-01    3.06698E-01    1.78558E-01    9.00680E-02    3.62073E-02    1.09812E-02    2.30017E-03    3.04679E-04    5.59828E-07    2.71051E-11    5.42101E-11   -4.09578E+00   -3.99225E+00   -3.88961E+00   -3.70857E+00   -3.43132E+00   -3.11251E+00   -2.72014E+00   -2.25645E+00   -1.75669E+00   -1.21337E+00   -6.76711E-01   -1.72676E-01    2.14517E-01    4.59927E-01    5.28847E-01    4.46979E-01   -1.84554E+00    1.37412E-01    4.62496E-02    1.02020E-02    1.39416E-03    2.12330E-06   -1.52656E-07    1.31839E-07  
 -292.7    Y      9.88792E-08    5.55112E-08    1.56125E-08    3.46945E-09   -2.60209E-08   -1.25085E-02   -1.10158E-02   -9.97362E-03   -9.04478E-03   -8.27290E-03   -7.59182E-03   -7.00839E-03   -6.43966E-03   -5.96449E-03   -5.49641E-03   -5.10225E-03   -4.71141E-03   -4.38318E-03   -4.03477E-03   -3.76036E-03    9.56714E-03    8.93671E-03    8.68324E-03    8.35521E-03    7.95989E-03    7.54868E-03    7.05595E-03    6.47243E-03    5.84135E-03    5.13054E-03    4.36992E-03    3.55990E-03    2.76718E-03    1.99795E-03    1.31318E-03    7.63576E-04    3.84557E-04    1.54296E-04    4.66968E-05    9.75953E-06    1.28994E-06    2.49756E-09    1.31985E-10   -3.23702E-12   -1.92447E-02   -1.75936E-02   -1.68971E-02   -1.59299E-02   -1.46535E-02   -1.32652E-02   -1.15754E-02   -9.58256E-03   -7.43888E-03   -5.11406E-03   -2.82285E-03   -6.75624E-04    9.69036E-04    2.00524E-03    2.28634E-03    1.92465E-03   -4.35446E-02    5.88382E-04    1.97488E-04    4.37411E-05    5.70724E-06   -1.30104E-07   -1.47451E-07   -6.76542E-08  
 -292.7    Z      1.66533E-07    2.22045E-07    1.11022E-07    2.77556E-07    1.66533E-07   -3.61684E+00   -3.20815E+00   -2.91438E+00   -2.65215E+00   -2.43292E+00   -2.23855E+00   -2.07131E+00   -1.90773E+00   -1.77066E+00   -1.63527E+00   -1.52096E+00   -1.40738E+00   -1.31175E+00   -1.21005E+00   -1.12978E+00    2.72936E+00    2.54461E+00    2.47866E+00    2.39147E+00    2.28234E+00    2.16739E+00    2.03027E+00    1.86798E+00    1.69154E+00    1.49142E+00    1.27579E+00    1.04461E+00    8.16736E-01    5.93851E-01    3.93590E-01    2.31088E-01    1.17641E-01    4.77790E-02    1.46499E-02    3.10400E-03    4.15867E-04    7.81526E-07    6.74318E-12    8.38633E-11   -5.57157E+00   -5.08733E+00   -4.89661E+00   -4.62768E+00   -4.26481E+00   -3.86727E+00   -3.38363E+00   -2.81240E+00   -2.19528E+00   -1.52251E+00   -8.55571E-01   -2.26332E-01    2.60263E-01    5.72326E-01    6.64476E-01    5.66282E-01    2.38818E+01    1.77472E-01    6.04588E-02    1.35214E-02    1.87528E-03    2.99760E-06    5.55112E-08    5.55112E-08  
 -290.7    X      1.11022E-07    1.38778E-07    1.38778E-07    1.66533E-07    1.94289E-07   -2.92272E+00   -2.66348E+00   -2.41476E+00   -2.19192E+00   -2.00624E+00   -1.84212E+00   -1.70130E+00   -1.56392E+00   -1.44909E+00   -1.33594E+00   -1.24062E+00   -1.14610E+00   -1.06670E+00   -9.82414E-01   -9.16019E-01    2.04115E+00    2.06749E+00    2.04642E+00    1.99734E+00    1.91557E+00    1.81977E+00    1.70230E+00    1.56281E+00    1.41150E+00    1.24051E+00    1.05707E+00    8.61441E-01    6.69850E-01    4.83872E-01    3.18257E-01    1.85245E-01    9.34172E-02    3.75431E-02    1.13830E-02    2.38358E-03    3.15631E-04    5.79614E-07    5.42101E-11   -2.03288E-11   -4.25616E+00   -4.14666E+00   -4.03966E+00   -3.85131E+00   -3.56314E+00   -3.23191E+00   -2.82430E+00   -2.34266E+00   -1.82359E+00   -1.25932E+00   -7.02045E-01   -1.78719E-01    2.23199E-01    4.77832E-01    5.49193E-01    4.64034E-01   -2.68325E+00    1.42571E-01    4.79689E-02    1.05773E-02    1.44496E-03    2.19269E-06   -5.55112E-08   -8.32667E-08  
 -290.7    Y      2.94903E-08   -8.84709E-08    1.38778E-07    3.12250E-08    1.04083E-08    9.50628E-06    1.22780E-04    1.16306E-04    1.12198E-04    1.06894E-04    1.00941E-04    9.54081E-05    8.95456E-05    8.44541E-05    7.94373E-05    7.51504E-05    7.09081E-05    6.73476E-05    6.36487E-05    6.07331E-05    1.71227E-04    3.12213E-05   -1.85158E-05   -5.61887E-05   -6.78744E-05   -6.59395E-05   -6.36887E-05   -6.23177E-05   -5.93802E-05   -5.38727E-05   -4.63671E-05   -3.76062E-05   -2.89524E-05   -2.08286E-05   -1.38813E-05   -8.38717E-06   -4.48432E-06   -1.94068E-06   -6.35591E-07   -1.43118E-07   -2.01613E-08   -1.33514E-10    1.27796E-10    2.54110E-11   -1.71981E-04    4.33222E-05    1.16066E-04    1.68019E-04    1.77871E-04    1.65817E-04    1.50792E-04    1.34373E-04    1.13815E-04    8.75168E-05    5.84203E-05    2.93012E-05    5.80785E-06   -1.07119E-05   -1.78763E-05   -1.72778E-05    8.21250E-02   -6.34909E-06   -2.23259E-06   -2.35922E-07   -2.42861E-07   -2.25514E-07   -1.87350E-07   -1.38778E-08  
 -290.7    Z      1.38778E-07    1.94289E-07    2.08167E-07    1.24900E-07    1.66533E-07   -3.70544E+00   -3.28633E+00   -2.98532E+00   -2.71663E+00   -2.49202E+00   -2.29288E+00   -2.12154E+00   -1.95395E+00   -1.81352E+00   -1.67482E+00   -1.55773E+00   -1.44137E+00   -1.34341E+00   -1.23923E+00   -1.15700E+00    2.79737E+00    2.60733E+00    2.53961E+00    2.45016E+00    2.33828E+00    2.22048E+00    2.07996E+00    1.91367E+00    1.73286E+00    1.52781E+00    1.30687E+00    1.07000E+00    8.36536E-01    6.08200E-01    4.03062E-01    2.36624E-01    1.20445E-01    4.89108E-02    1.49946E-02    3.17654E-03    4.25517E-04    7.99522E-07    1.03762E-10    1.33831E-10   -5.70912E+00   -5.21179E+00   -5.01618E+00   -4.74050E+00   -4.36866E+00   -3.96136E+00   -3.46587E+00   -2.88066E+00   -2.24847E+00   -1.55927E+00   -8.76075E-01   -2.31538E-01    2.66843E-01    5.86407E-01    6.80693E-01    5.80025E-01    2.36358E+01    1.81730E-01    6.18988E-02    1.38408E-02    1.91913E-03    3.17801E-06   -1.24900E-07    0.00000E+00  
