Data type: dB/dt; UNIT: nT/s
Number of stations: 301
Stations (m): -299.7 -297.7 -295.7 -293.7 -291.7 -289.7 -287.7 -285.7 -283.7 -281.7 -279.7 -277.7 -275.7 -273.7 -271.7 -269.7 -267.7 -265.7 -263.7 -261.7 -259.7 -257.7 -255.7 -253.7 -251.7 -249.7 -247.7 -245.7 -243.7 -241.7 -239.7 -237.7 -235.7 -233.7 -231.7 -229.7 -227.7 -225.7 -223.7 -221.7 -219.7 -217.7 -215.7 -213.7 -211.7 -209.7 -207.7 -205.7 -203.7 -201.7 -199.7 -197.7 -195.7 -193.7 -191.7 -189.7 -187.7 -185.7 -183.7 -181.7 -179.7 -177.7 -175.7 -173.7 -171.7 -169.7 -167.7 -165.7 -163.7 -161.7 -159.7 -157.7 -155.7 -153.7 -151.7 -149.7 -147.7 -145.7 -143.7 -141.7 -139.7 -137.7 -135.7 -133.7 -131.7 -129.7 -127.7 -125.7 -123.7 -121.7 -119.7 -117.7 -115.7 -113.7 -111.7 -109.7 -107.7 -105.7 -103.7 -101.7 -99.7 -97.7 -95.7 -93.7 -91.7 -89.7 -87.7 -85.7 -83.7 -81.7 -79.7 -77.7 -75.7 -73.7 -71.7 -69.7 -67.7 -65.7 -63.7 -61.7 -59.7 -57.7 -55.7 -53.7 -51.7 -49.7 -47.7 -45.7 -43.7 -41.7 -39.7 -37.7 -35.7 -33.7 -31.7 -29.7 -27.7 -25.7 -23.7 -21.7 -19.7 -17.7 -15.7 -13.7 -11.7 -9.69999999999999 -7.69999999999999 -5.69999999999999 -3.69999999999999 -1.69999999999999 0.300000000000011 2.30000000000001 4.30000000000001 6.30000000000001 8.30000000000001 10.3 12.3 14.3 16.3 18.3 20.3 22.3 24.3 26.3 28.3 30.3 32.3 34.3 36.3 38.3 40.3 42.3 44.3 46.3 48.3 50.3 52.3 54.3 56.3 58.3 60.3 62.3 64.3 66.3 68.3 70.3 72.3 74.3 76.3 78.3 80.3 82.3 84.3 86.3 88.3 90.3 92.3 94.3 96.3 98.3 100.3 102.3 104.3 106.3 108.3 110.3 112.3 114.3 116.3 118.3 120.3 122.3 124.3 126.3 128.3 130.3 132.3 134.3 136.3 138.3 140.3 142.3 144.3 146.3 148.3 150.3 152.3 154.3 156.3 158.3 160.3 162.3 164.3 166.3 168.3 170.3 172.3 174.3 176.3 178.3 180.3 182.3 184.3 186.3 188.3 190.3 192.3 194.3 196.3 198.3 200.3 202.3 204.3 206.3 208.3 210.3 212.3 214.3 216.3 218.3 220.3 222.3 224.3 226.3 228.3 230.3 232.3 234.3 236.3 238.3 240.3 242.3 244.3 246.3 248.3 250.3 252.3 254.3 256.3 258.3 260.3 262.3 264.3 266.3 268.3 270.3 272.3 274.3 276.3 278.3 280.3 282.3 284.3 286.3 288.3 290.3 292.3 294.3 296.3 298.3 300.3
Channel times (ms):
   1    -1.9500 
   2    -1.8500 
   3    -1.7500 
   4    -1.6500 
   5    -1.5500 
   6    -1.4495 
   7    -1.3500 
   8    -1.2500 
   9    -1.1500 
   10   -1.0500 
   11   -0.9500 
   12   -0.8500 
   13   -0.7500 
   14   -0.6500 
   15   -0.5500 
   16   -0.4500 
   17   -0.3500 
   18   -0.2500 
   19   -0.1500 
   20   -0.0500 
   21    0.0255 
   22    0.0550 
   23    0.0700 
   24    0.0950 
   25    0.1300 
   26    0.1750 
   27    0.2350 
   28    0.3150 
   29    0.4200 
   30    0.5600 
   31    0.7450 
   32    0.9900 
   33    1.3150 
   34    1.7450 
   35    2.3150 
   36    3.0750 
   37    4.0850 
   38    5.4250 
   39    7.2050 
   40    9.5700 
   41    12.6600
   42    22.7300
   43    39.3950
   44    48.1150
   45    48.5255
   46    48.5550
   47    48.5700
   48    48.5950
   49    48.6300
   50    48.6750
   51    48.7350
   52    48.8150
   53    48.9200
   54    49.0600
   55    49.2450
   56    49.4900
   57    49.8150
   58    50.2450
   59    50.8150
   60    51.5750
   61    52.5850
   62    53.9250
   63    55.7050
   64    58.0700
   65    61.1600
   66    71.2300
   67    87.8950
   68    97.1150
EM data:
Station Component      CH1            CH2            CH3            CH4            CH5            CH6            CH7            CH8            CH9           CH10           CH11           CH12           CH13           CH14           CH15           CH16           CH17           CH18           CH19           CH20           CH21           CH22           CH23           CH24           CH25           CH26           CH27           CH28           CH29           CH30           CH31           CH32           CH33           CH34           CH35           CH36           CH37           CH38           CH39           CH40           CH41           CH42           CH43           CH44           CH45           CH46           CH47           CH48           CH49           CH50           CH51           CH52           CH53           CH54           CH55           CH56           CH57           CH58           CH59           CH60           CH61           CH62           CH63           CH64           CH65           CH66           CH67           CH68      
 -298.7    X      0.00000E+00    4.77049E-09    4.33681E-10    0.00000E+00   -2.60209E-09    7.42908E+01    6.66806E+01    6.07332E+01    5.53997E+01    5.09290E+01    4.69546E+01    4.35258E+01    4.01632E+01    3.73384E+01    3.45414E+01    3.21743E+01    2.98167E+01    2.78275E+01    2.57072E+01    2.40302E+01   -5.39372E+01   -5.15840E+01   -5.05209E+01   -4.89605E+01   -4.68594E+01   -4.45758E+01   -4.18268E+01   -3.85652E+01   -3.50126E+01   -3.09724E+01   -2.66011E+01   -2.18878E+01   -1.72083E+01   -1.25913E+01   -8.40212E+00   -4.96709E+00   -2.54469E+00   -1.03913E+00   -3.19699E-01   -6.77477E-02   -9.03722E-03   -1.65414E-05   -6.52215E-10   -3.38813E-12    1.12438E+02    1.04792E+02    1.01297E+02    9.60843E+01    8.87864E+01    8.06633E+01    7.07287E+01    5.89657E+01    4.62279E+01    3.22987E+01    1.84331E+01    5.27449E+00   -4.99203E+00   -1.16852E+01   -1.38039E+01   -1.18981E+01   -7.61070E+00   -3.80042E+00   -1.30554E+00   -2.93800E-01   -4.08281E-02   -6.32827E-05    1.38778E-08    5.20417E-09  
 -298.7    Y     -5.69206E-09   -7.15573E-09   -9.92045E-09    6.55942E-09    7.91468E-09    4.01357E-02    3.69617E-02    3.34891E-02    3.03949E-02    2.78404E-02    2.55888E-02    2.36558E-02    2.17661E-02    2.01823E-02    1.86168E-02    1.72938E-02    1.59774E-02    1.48678E-02    1.36859E-02    1.27517E-02   -2.86604E-02   -2.82504E-02   -2.80587E-02   -2.75558E-02   -2.65517E-02   -2.52518E-02   -2.36129E-02   -2.16832E-02   -1.96218E-02   -1.73131E-02   -1.48402E-02   -1.21918E-02   -9.57570E-03   -7.00374E-03   -4.67461E-03   -2.76538E-03   -1.41781E-03   -5.79235E-04   -1.78171E-04   -3.77146E-05   -5.02033E-06   -9.11598E-09   -1.16467E-11   -2.05405E-11    5.96385E-02    5.68175E-02    5.54900E-02    5.31493E-02    4.93415E-02    4.47813E-02    3.91004E-02    3.24101E-02    2.52427E-02    1.74708E-02    9.78543E-03    2.53388E-03   -3.08440E-03   -6.70487E-03   -7.79404E-03   -6.67230E-03   -4.00286E-03   -2.12122E-03   -7.28204E-04   -1.63764E-04   -2.27381E-05   -3.03577E-08   -1.19262E-08   -8.83625E-09  
 -298.7    Z      1.47451E-08    6.50521E-09   -3.03577E-09   -6.93889E-09   -6.93889E-09    9.65376E+01    8.68118E+01    7.92671E+01    7.24649E+01    6.67378E+01    6.16285E+01    5.72074E+01    5.28605E+01    4.92003E+01    4.55687E+01    4.24895E+01    3.94174E+01    3.68212E+01    3.40496E+01    3.18545E+01   -6.96388E+01   -6.64151E+01   -6.50359E+01   -6.30526E+01   -6.04136E+01   -5.75531E+01   -5.41029E+01   -4.99931E+01   -4.54962E+01   -4.03570E+01   -3.47668E+01   -2.87052E+01   -2.26516E+01   -1.66425E+01   -1.11558E+01   -6.62777E+00   -3.41370E+00   -1.40256E+00   -4.34517E-01   -9.28198E-02   -1.24938E-02   -2.33817E-05   -9.41901E-10   -3.38813E-12    1.46359E+02    1.36144E+02    1.31602E+02    1.24888E+02    1.15528E+02    1.05110E+02    9.23429E+01    7.71838E+01    6.07156E+01    4.26448E+01    2.45848E+01    7.36509E+00   -6.15595E+00   -1.50655E+01   -1.80043E+01   -1.56345E+01   -1.06081E+01   -5.06154E+00   -1.75209E+00   -3.97789E-01   -5.58411E-02   -8.88417E-05   -8.67362E-10   -4.33681E-09  
 -296.7    X      3.46945E-09    6.93889E-09    0.00000E+00   -3.46945E-09   -2.08167E-08    7.67615E+01    6.88910E+01    6.27419E+01    5.72284E+01    5.26075E+01    4.84999E+01    4.49565E+01    4.14819E+01    3.85631E+01    3.56732E+01    3.32276E+01    3.07919E+01    2.87370E+01    2.65466E+01    2.48144E+01   -5.57488E+01   -5.33136E+01   -5.22136E+01   -5.05993E+01   -4.84258E+01   -4.60638E+01   -4.32207E+01   -3.98479E+01   -3.61747E+01   -3.19979E+01   -2.74795E+01   -2.26084E+01   -1.77731E+01   -1.30032E+01   -8.67589E+00   -5.12829E+00   -2.62692E+00   -1.07255E+00   -3.29925E-01   -6.99015E-02   -9.32256E-03   -1.70548E-05   -6.72544E-10   -2.54110E-11    1.16182E+02    1.08276E+02    1.04663E+02    9.92740E+01    9.17301E+01    8.33340E+01    7.30663E+01    6.09100E+01    4.77475E+01    3.33554E+01    1.90305E+01    5.43798E+00   -5.16519E+00   -1.20758E+01   -1.42607E+01   -1.22892E+01   -7.85870E+00   -3.92397E+00   -1.34772E+00   -3.03227E-01   -4.21279E-02   -6.52360E-05    2.42861E-08   -1.38778E-08  
 -296.7    Y     -1.21837E-08    4.24872E-09   -4.74338E-11   -2.03288E-11   -8.99888E-09    2.19808E-01    1.98788E-01    1.81334E-01    1.65600E-01    1.52385E-01    1.40611E-01    1.30429E-01    1.20424E-01    1.12003E-01    1.03651E-01    9.65713E-02    8.95108E-02    8.35460E-02    7.71807E-02    7.21412E-02   -1.57972E-01   -1.51800E-01   -1.49114E-01   -1.44999E-01   -1.39153E-01   -1.32582E-01   -1.24566E-01   -1.15021E-01   -1.04609E-01   -9.27353E-02   -7.98350E-02   -6.58584E-02   -5.19128E-02   -3.80865E-02   -2.54830E-02   -1.51041E-02   -7.75708E-03   -3.17546E-03   -9.79384E-04   -2.08077E-04   -2.78301E-05   -5.12417E-08   -5.50571E-12   -4.23516E-13    3.31721E-01    3.10256E-01    3.00579E-01    2.85848E-01    2.64704E-01    2.40805E-01    2.11390E-01    1.76484E-01    1.38631E-01    9.71513E-02    5.57444E-02    1.63125E-02   -1.45907E-02   -3.48752E-02   -4.14514E-02   -3.58776E-02   -2.38375E-02   -1.15417E-02   -3.97861E-03   -8.98495E-04   -1.25303E-04   -1.91274E-07    3.18484E-10    7.52843E-09  
 -296.7    Z     -1.87567E-08   -1.36067E-08   -1.24141E-08   -3.90313E-09    4.98733E-09    9.83075E+01    8.84013E+01    8.07177E+01    7.37904E+01    6.79581E+01    6.27549E+01    5.82526E+01    5.38259E+01    5.00986E+01    4.64004E+01    4.32647E+01    4.01363E+01    3.74925E+01    3.46702E+01    3.24349E+01   -7.09216E+01   -6.76360E+01   -6.62309E+01   -6.42107E+01   -6.15228E+01   -5.86095E+01   -5.50956E+01   -5.09100E+01   -4.63303E+01   -4.10964E+01   -3.54033E+01   -2.92303E+01   -2.30655E+01   -1.69461E+01   -1.13590E+01   -6.74824E+00   -3.47560E+00   -1.42792E+00   -4.42344E-01   -9.44847E-02   -1.27168E-02   -2.37940E-05   -9.48677E-10   -2.03288E-11    1.49046E+02    1.38640E+02    1.34014E+02    1.27176E+02    1.17643E+02    1.07034E+02    9.40324E+01    7.85950E+01    6.18248E+01    4.34228E+01    2.50321E+01    7.49732E+00   -6.27071E+00   -1.53426E+01   -1.83342E+01   -1.59203E+01   -1.08020E+01   -5.15358E+00   -1.78384E+00   -4.04967E-01   -5.68435E-02   -9.04074E-05   -4.39102E-09    9.97466E-09  
 -294.7    X      5.20417E-09   -1.04083E-08   -5.20417E-09    3.46945E-09   -3.46945E-09    7.79858E+01    6.99860E+01    6.37363E+01    5.81331E+01    5.34374E+01    4.92636E+01    4.56633E+01    4.21330E+01    3.91676E+01    3.62316E+01    3.37471E+01    3.12728E+01    2.91853E+01    2.69603E+01    2.52007E+01   -5.66474E+01   -5.41729E+01   -5.30548E+01   -5.14137E+01   -4.92041E+01   -4.68028E+01   -4.39126E+01   -4.04842E+01   -3.67507E+01   -3.25059E+01   -2.79142E+01   -2.29646E+01   -1.80519E+01   -1.32062E+01   -8.81069E+00   -5.20752E+00   -2.66726E+00   -1.08891E+00   -3.34919E-01   -7.09504E-02   -9.46109E-03   -1.73022E-05   -6.97108E-10   -2.28699E-11    1.18036E+02    1.10003E+02    1.06331E+02    1.00855E+02    9.31888E+01    8.46569E+01    7.42235E+01    6.18718E+01    4.84985E+01    3.38767E+01    1.93243E+01    5.51713E+00   -5.25227E+00   -1.22698E+01   -1.44869E+01   -1.24825E+01   -7.97928E+00   -3.98473E+00   -1.36841E+00   -3.07838E-01   -4.27614E-02   -6.62196E-05    1.21431E-08   -1.21431E-08  
 -294.7    Y     -1.56125E-08   -9.54098E-09   -9.97466E-09   -1.90820E-08   -1.95156E-08    9.70052E-04    2.51434E-03    2.51483E-03    2.44496E-03    2.37003E-03    2.28356E-03    2.19037E-03    2.08150E-03    1.97648E-03    1.86029E-03    1.75255E-03    1.63672E-03    1.53230E-03    1.41426E-03    1.31609E-03    1.30257E-03    7.92080E-05   -4.48762E-04   -9.74870E-04   -1.31560E-03   -1.44049E-03   -1.48078E-03   -1.50136E-03   -1.51701E-03   -1.51296E-03   -1.46673E-03   -1.36125E-03   -1.19697E-03   -9.75240E-04   -7.20091E-04   -4.67484E-04   -2.60776E-04   -1.15571E-04   -3.84551E-05   -8.80693E-06   -1.26746E-06   -2.70161E-09    8.47033E-13    8.04681E-12   -1.40079E-04    1.66422E-03    2.40320E-03    3.09009E-03    3.43038E-03    3.40449E-03    3.18341E-03    2.85785E-03    2.47013E-03    1.98049E-03    1.39671E-03    7.24928E-04    7.88831E-05   -4.67329E-04   -7.84487E-04   -8.18200E-04   -7.36545E-04   -3.44642E-04   -1.33444E-04   -3.36072E-05   -5.19073E-06    0.00000E+00    1.64799E-08    3.46945E-08  
 -294.7    Z     -1.22921E-08   -1.63986E-09   -1.15196E-08   -6.19350E-09    1.32815E-09    1.01011E+02    9.08277E+01    8.29311E+01    7.58120E+01    6.98185E+01    6.44717E+01    5.98453E+01    5.52966E+01    5.14667E+01    4.76668E+01    4.44450E+01    4.12307E+01    3.85144E+01    3.56147E+01    3.33181E+01   -7.28848E+01   -6.95041E+01   -6.80591E+01   -6.59820E+01   -6.32188E+01   -6.02243E+01   -5.66126E+01   -5.23106E+01   -4.76037E+01   -4.22247E+01   -3.63741E+01   -3.00305E+01   -2.36959E+01   -1.74084E+01   -1.16682E+01   -6.93139E+00   -3.56965E+00   -1.46642E+00   -4.54220E-01   -9.70089E-02   -1.30546E-02   -2.44170E-05   -9.66756E-10    1.71392E-12    1.53152E+02    1.42451E+02    1.37696E+02    1.30669E+02    1.20872E+02    1.09970E+02    9.66097E+01    8.07470E+01    6.35152E+01    4.46073E+01    2.57118E+01    7.69666E+00   -6.44752E+00   -1.57660E+01   -1.88375E+01   -1.63557E+01   -1.10956E+01   -5.29356E+00   -1.83209E+00   -4.15863E-01   -5.83636E-02   -9.27759E-05    1.18043E-08    2.57498E-09  
 -292.7    X     -5.20417E-09    1.04083E-08   -1.21431E-08   -5.20417E-09   -1.73472E-09    8.19251E+01    7.35140E+01    6.69457E+01    6.10577E+01    5.61237E+01    5.17385E+01    4.79559E+01    4.42471E+01    4.11319E+01    3.80478E+01    3.54380E+01    3.28390E+01    3.06464E+01    2.83094E+01    2.64613E+01   -5.95274E+01   -5.69206E+01   -5.57441E+01   -5.40180E+01   -5.16947E+01   -4.91702E+01   -4.61321E+01   -4.25286E+01   -3.86048E+01   -3.41439E+01   -2.93191E+01   -2.41187E+01   -1.89577E+01   -1.38677E+01   -9.25111E+00   -5.46726E+00   -2.79999E+00   -1.14295E+00   -3.51491E-01   -7.44490E-02   -9.92583E-03   -1.81440E-05   -7.11614E-10   -6.56451E-12    1.24008E+02    1.15558E+02    1.11698E+02    1.05942E+02    9.78863E+01    8.89214E+01    7.79592E+01    6.49824E+01    5.09331E+01    3.55733E+01    2.02877E+01    5.78616E+00   -5.52332E+00   -1.28911E+01   -1.52167E+01   -1.31093E+01   -8.38386E+00   -4.18366E+00   -1.43650E+00   -3.23096E-01   -4.48717E-02   -6.94462E-05    8.67362E-09   -1.21431E-08  
 -292.7    Y      2.49366E-09    6.39679E-09    7.58942E-10    1.06252E-08    6.50521E-09    3.03415E-01    2.73840E-01    2.49556E-01    2.27716E-01    2.09399E-01    1.93099E-01    1.79022E-01    1.65203E-01    1.53583E-01    1.42069E-01    1.32317E-01    1.22599E-01    1.14395E-01    1.05646E-01    9.87235E-02   -2.18869E-01   -2.10329E-01   -2.06492E-01   -2.00630E-01   -1.92378E-01   -1.83166E-01   -1.71967E-01   -1.58655E-01   -1.44152E-01   -1.27639E-01   -1.09736E-01   -9.03851E-02   -7.11265E-02   -5.20839E-02   -3.47748E-02   -2.05638E-02   -1.05350E-02   -4.30081E-03   -1.32248E-03   -2.80026E-04   -3.73155E-05   -6.80998E-08   -7.62330E-12   -9.31736E-12    4.57862E-01    4.28244E-01    4.14703E-01    3.94119E-01    3.64699E-01    3.31557E-01    2.90842E-01    2.42581E-01    1.90302E-01    1.33086E-01    7.60614E-02    2.18628E-02   -2.04991E-02   -4.81798E-02   -5.69996E-02   -4.91794E-02   -3.21145E-02   -1.57262E-02   -5.40258E-03   -1.21536E-03   -1.68748E-04   -2.54571E-07   -1.08420E-09    5.52943E-09  
 -292.7    Z      8.07731E-09   -1.34441E-08    1.08962E-08    1.04626E-08   -2.43945E-09    1.03350E+02    9.29289E+01    8.48487E+01    7.75642E+01    7.14315E+01    6.59605E+01    6.12267E+01    5.65726E+01    5.26539E+01    4.87659E+01    4.54694E+01    4.21807E+01    3.94015E+01    3.64347E+01    3.40850E+01   -7.45793E+01   -7.11178E+01   -6.96388E+01   -6.75130E+01   -6.46854E+01   -6.16211E+01   -5.79252E+01   -5.35230E+01   -4.87065E+01   -4.32024E+01   -3.72156E+01   -3.07247E+01   -2.42429E+01   -1.78097E+01   -1.19366E+01   -7.09050E+00   -3.65136E+00   -1.49987E+00   -4.64544E-01   -9.92034E-02   -1.33484E-02   -2.49591E-05   -1.00119E-09    2.54110E-12    1.56701E+02    1.45749E+02    1.40883E+02    1.33692E+02    1.23668E+02    1.12513E+02    9.88430E+01    8.26126E+01    6.49815E+01    4.56357E+01    2.63029E+01    7.87125E+00   -6.59944E+00   -1.61324E+01   -1.92736E+01   -1.67335E+01   -1.13510E+01   -5.41513E+00   -1.87401E+00   -4.25333E-01   -5.96850E-02   -9.48627E-05   -4.28260E-09   -7.31836E-09  
 -290.7    X     -3.46945E-09    3.46945E-09   -1.73472E-09    3.46945E-09    0.00000E+00    8.55735E+01    7.67796E+01    6.99149E+01    6.37622E+01    5.86069E+01    5.40254E+01    5.00739E+01    4.61996E+01    4.29457E+01    3.97244E+01    3.69986E+01    3.42842E+01    3.19943E+01    2.95539E+01    2.76240E+01   -6.21992E+01   -5.94701E+01   -5.82392E+01   -5.64339E+01   -5.40045E+01   -5.13651E+01   -4.81891E+01   -4.44224E+01   -4.03214E+01   -3.56596E+01   -3.06182E+01   -2.51852E+01   -1.97941E+01   -1.44780E+01   -9.65715E+00   -5.70652E+00   -2.92213E+00   -1.19263E+00   -3.66709E-01   -7.76575E-02   -1.03514E-02   -1.89122E-05   -7.41154E-10   -1.01644E-11    1.29538E+02    1.20703E+02    1.16668E+02    1.10653E+02    1.02235E+02    9.28678E+01    8.14150E+01    6.78582E+01    5.31824E+01    3.71391E+01    2.11749E+01    6.03139E+00   -5.77675E+00   -1.34673E+01   -1.58920E+01   -1.36884E+01   -8.75490E+00   -4.36697E+00   -1.49916E+00   -3.37116E-01   -4.68075E-02   -7.23952E-05    3.46945E-09    1.73472E-09  
 -290.7    Y     -2.03830E-08   -1.56125E-08   -1.86483E-08   -9.54098E-09   -1.17094E-08   -1.75981E-01   -1.56224E-01   -1.42205E-01   -1.29672E-01   -1.19159E-01   -1.09818E-01   -1.01768E-01   -9.38827E-02   -8.72662E-02   -8.07223E-02   -7.51900E-02   -6.96854E-02   -6.50453E-02   -6.01040E-02   -5.61993E-02    1.29950E-01    1.22642E-01    1.19499E-01    1.15225E-01    1.09918E-01    1.04431E-01    9.79380E-02    9.02458E-02    8.18529E-02    7.23059E-02    6.19929E-02    5.09027E-02    3.99275E-02    2.91379E-02    1.93863E-02    1.14242E-02    5.83341E-03    2.37362E-03    7.27529E-04    1.53546E-04    2.03940E-05    3.69469E-08   -9.31736E-12   -7.19978E-12   -2.68633E-01   -2.47843E-01   -2.38656E-01   -2.25508E-01   -2.07846E-01   -1.88638E-01   -1.65331E-01   -1.37762E-01   -1.07898E-01   -7.52575E-02   -4.28112E-02   -1.20864E-02    1.18120E-02    2.73135E-02    3.21282E-02    2.75957E-02    1.81994E-02    8.74854E-03    2.99222E-03    6.70112E-04    9.26290E-05    1.37260E-07    2.01662E-08    1.58294E-08  
 -290.7    Z      3.90313E-09    8.02310E-09    3.68629E-09   -2.16840E-09   -2.60209E-09    1.05233E+02    9.46214E+01    8.63941E+01    7.89770E+01    7.27325E+01    6.71619E+01    6.23417E+01    5.76027E+01    5.36125E+01    4.96536E+01    4.62970E+01    4.29483E+01    4.01184E+01    3.70975E+01    3.47050E+01   -7.59421E+01   -7.24147E+01   -7.09083E+01   -6.87435E+01   -6.58643E+01   -6.27443E+01   -5.89812E+01   -5.44989E+01   -4.95947E+01   -4.39902E+01   -3.78942E+01   -3.12847E+01   -2.46847E+01   -1.81339E+01   -1.21537E+01   -7.21930E+00   -3.71757E+00   -1.52701E+00   -4.72926E-01   -1.00987E-01   -1.35875E-02   -2.54016E-05   -1.02258E-09   -1.31290E-11    1.59561E+02    1.48405E+02    1.43449E+02    1.36127E+02    1.25920E+02    1.14562E+02    1.00643E+02    8.41171E+01    6.61649E+01    4.64666E+01    2.67815E+01    8.01388E+00   -6.72048E+00   -1.64270E+01   -1.96252E+01   -1.70383E+01   -1.15589E+01   -5.51349E+00   -1.90797E+00   -4.33017E-01   -6.07589E-02   -9.65562E-05   -2.81893E-09   -1.01915E-08  
