Data type: dB/dt; UNIT: nT/s
Number of stations: 121
Stations (m): 0.2 5.2 10.2 15.2 20.2 25.2 30.2 35.2 40.2 45.2 50.2 55.2 60.2 65.2 70.2 75.2 80.2 85.2 90.2 95.2 100.2 105.2 110.2 115.2 120.2 125.2 130.2 135.2 140.2 145.2 150.2 155.2 160.2 165.2 170.2 175.2 180.2 185.2 190.2 195.2 200.2 205.2 210.2 215.2 220.2 225.2 230.2 235.2 240.2 245.2 250.2 255.2 260.2 265.2 270.2 275.2 280.2 285.2 290.2 295.2 300.2 305.2 310.2 315.2 320.2 325.2 330.2 335.2 340.2 345.2 350.2 355.2 360.2 365.2 370.2 375.2 380.2 385.2 390.2 395.2 400.2 405.2 410.2 415.2 420.2 425.2 430.2 435.2 440.2 445.2 450.2 455.2 460.2 465.2 470.2 475.2 480.2 485.2 490.2 495.2 500.2 505.2 510.2 515.2 520.2 525.2 530.2 535.2 540.2 545.2 550.2 555.2 560.2 565.2 570.2 575.2 580.2 585.2 590.2 595.2 600.2
Channel times (ms):
   1    -1.9500 
   2    -1.8500 
   3    -1.7500 
   4    -1.6500 
   5    -1.5500 
   6    -1.4495 
   7    -1.3500 
   8    -1.2500 
   9    -1.1500 
   10   -1.0500 
   11   -0.9500 
   12   -0.8500 
   13   -0.7500 
   14   -0.6500 
   15   -0.5500 
   16   -0.4500 
   17   -0.3500 
   18   -0.2500 
   19   -0.1500 
   20   -0.0500 
   21    0.0255 
   22    0.0550 
   23    0.0700 
   24    0.0950 
   25    0.1300 
   26    0.1750 
   27    0.2350 
   28    0.3150 
   29    0.4200 
   30    0.5600 
   31    0.7450 
   32    0.9900 
   33    1.3150 
   34    1.7450 
   35    2.3150 
   36    3.0750 
   37    4.0850 
   38    5.4250 
   39    7.2050 
   40    9.5700 
   41    12.6600
   42    22.7300
   43    39.3950
   44    48.1150
   45    48.5255
   46    48.5550
   47    48.5700
   48    48.5950
   49    48.6300
   50    48.6750
   51    48.7350
   52    48.8150
   53    48.9200
   54    49.0600
   55    49.2450
   56    49.4900
   57    49.8150
   58    50.2450
   59    50.8150
   60    51.5750
   61    52.5850
   62    53.9250
   63    55.7050
   64    58.0700
   65    61.1600
   66    71.2300
   67    87.8950
   68    97.1150
EM data:
Station Component      CH1            CH2            CH3            CH4            CH5            CH6            CH7            CH8            CH9           CH10           CH11           CH12           CH13           CH14           CH15           CH16           CH17           CH18           CH19           CH20           CH21           CH22           CH23           CH24           CH25           CH26           CH27           CH28           CH29           CH30           CH31           CH32           CH33           CH34           CH35           CH36           CH37           CH38           CH39           CH40           CH41           CH42           CH43           CH44           CH45           CH46           CH47           CH48           CH49           CH50           CH51           CH52           CH53           CH54           CH55           CH56           CH57           CH58           CH59           CH60           CH61           CH62           CH63           CH64           CH65           CH66           CH67           CH68      
  0.2      X     -2.89731E-02   -2.87073E-02   -2.84180E-02   -2.81577E-02   -2.79001E-02    5.48477E+01    9.13748E+01    1.21242E+02    1.50820E+02    1.77739E+02    2.03289E+02    2.26580E+02    2.50543E+02    2.71556E+02    2.93188E+02    3.12167E+02    3.31714E+02    3.48746E+02    3.67480E+02    3.82740E+02    3.52299E+02    3.41772E+02    3.37584E+02    3.31886E+02    3.24650E+02    3.16854E+02    3.07057E+02    2.94454E+02    2.79350E+02    2.60366E+02    2.37584E+02    2.10321E+02    1.80221E+02    1.47071E+02    1.13161E+02    8.11223E+01    5.41211E+01    3.26114E+01    1.77296E+01    8.68135E+00    3.85092E+00    5.47186E-01    6.63599E-02    3.08070E-02    6.06324E+01    8.17516E+01    9.01096E+01    1.01706E+02    1.16514E+02    1.32181E+02    1.50933E+02    1.73157E+02    1.96653E+02    2.21317E+02    2.43698E+02    2.59736E+02    2.63668E+02    2.50871E+02    2.19014E+02    1.71286E+02    1.17379E+02    6.93189E+01    3.52710E+01    1.57197E+01    6.39686E+00    7.37763E-01    8.09740E-02    3.20694E-02  
  0.2      Y      6.47022E-03    6.41445E-03    6.35375E-03    6.29915E-03    6.24506E-03   -2.95510E+02   -3.03786E+02   -3.10390E+02   -3.16891E+02   -3.22815E+02   -3.28454E+02   -3.33609E+02   -3.38929E+02   -3.43607E+02   -3.48436E+02   -3.52684E+02   -3.57071E+02   -3.60903E+02   -3.65129E+02   -3.68579E+02   -7.85344E+01   -7.62148E+01   -7.52582E+01   -7.39539E+01   -7.23235E+01   -7.06113E+01   -6.85052E+01   -6.58246E+01   -6.26169E+01   -5.85715E+01   -5.36881E+01   -4.78004E+01   -4.12404E+01   -3.39367E+01   -2.63701E+01   -1.91151E+01   -1.29012E+01   -7.86338E+00   -4.31254E+00   -2.11545E+00   -9.27538E-01   -1.21066E-01   -1.41576E-02   -6.82417E-03   -4.28182E+02   -4.20613E+02   -4.16533E+02   -4.09983E+02   -3.99647E+02   -3.87057E+02   -3.70357E+02   -3.49008E+02   -3.23464E+02   -2.92315E+02   -2.56801E+02   -2.15913E+02   -1.73998E+02   -1.31181E+02   -9.18673E+01   -5.89432E+01   -3.44138E+01   -1.82116E+01   -8.77286E+00   -3.84698E+00   -1.55440E+00   -1.66054E-01   -1.72755E-02   -7.14200E-03  
  0.2      Z     -4.07473E+00   -4.03930E+00   -4.00070E+00   -3.96595E+00   -3.93153E+00   -2.54340E+04   -2.43604E+04   -2.34781E+04   -2.26013E+04   -2.17987E+04   -2.10317E+04   -2.03277E+04   -1.95983E+04   -1.89540E+04   -1.82861E+04   -1.76957E+04   -1.70833E+04   -1.65455E+04   -1.59495E+04   -1.54603E+04    1.07139E+04    1.04248E+04    1.03097E+04    1.01534E+04    9.95614E+03    9.74559E+03    9.48328E+03    9.14716E+03    8.74376E+03    8.23398E+03    7.61694E+03    6.86964E+03    6.03071E+03    5.08518E+03    4.08664E+03    3.10100E+03    2.22149E+03    1.46691E+03    8.92680E+02    5.00390E+02    2.59413E+02    5.33747E+01    8.75853E+00    4.30375E+00   -3.77873E+04   -3.60083E+04   -3.51925E+04   -3.39731E+04   -3.22291E+04   -3.02309E+04   -2.76889E+04   -2.45287E+04   -2.08976E+04   -1.66567E+04   -1.20882E+04   -7.28918E+03   -2.96446E+03    6.40178E+02    2.95668E+03    3.82123E+03    3.53361E+03    2.50870E+03    1.51384E+03    7.99565E+02    3.89455E+02    6.85700E+01    1.05494E+01    4.49285E+00  
  5.2      X     -8.54272E-02   -8.46402E-02   -8.37836E-02   -8.30131E-02   -8.22506E-02   -1.26128E+03   -1.15567E+03   -1.06939E+03   -9.84117E+02   -9.06532E+02   -8.32878E+02   -7.65716E+02   -6.96594E+02   -6.35959E+02   -5.73519E+02   -5.18717E+02   -4.62252E+02   -4.13032E+02   -3.58873E+02   -3.14738E+02    1.01678E+03    9.86730E+02    9.74679E+02    9.58211E+02    9.37253E+02    9.14705E+02    8.86475E+02    8.50270E+02    8.06945E+02    7.52498E+02    6.87143E+02    6.08899E+02    5.22448E+02    4.27124E+02    3.29445E+02    2.36925E+02    1.58686E+02    9.60845E+01    5.25308E+01    2.58758E+01    1.15402E+01    1.64396E+00    1.96632E-01    9.08820E-02   -1.90241E+03   -1.78053E+03   -1.72641E+03   -1.64673E+03   -1.53521E+03   -1.40929E+03   -1.25083E+03   -1.05555E+03   -8.34274E+02   -5.80126E+02   -3.12833E+02   -4.33442E+01    1.83666E+02    3.49088E+02    4.21098E+02    3.97181E+02    3.05914E+02    1.93119E+02    1.02130E+02    4.64309E+01    1.90908E+01    2.21757E+00    2.40166E-01    9.45876E-02  
  5.2      Y      6.33157E-03    6.27705E-03    6.21762E-03    6.16407E-03    6.11125E-03    2.65045E+02    2.56377E+02    2.49451E+02    2.42625E+02    2.36404E+02    2.30485E+02    2.25075E+02    2.19496E+02    2.14591E+02    2.09530E+02    2.05081E+02    2.00488E+02    1.96478E+02    1.92059E+02    1.88452E+02   -8.23177E+01   -7.98779E+01   -7.88742E+01   -7.75062E+01   -7.57951E+01   -7.39950E+01   -7.17754E+01   -6.89443E+01   -6.55529E+01   -6.12748E+01   -5.61120E+01   -4.98914E+01   -4.29681E+01   -3.52733E+01   -2.73219E+01   -1.97258E+01   -1.32500E+01   -8.03024E+00   -4.37639E+00   -2.13255E+00   -9.28868E-01   -1.19634E-01   -1.38628E-02   -6.67790E-03    3.92518E+02    3.75579E+02    3.67702E+02    3.55891E+02    3.38950E+02    3.19524E+02    2.94791E+02    2.64015E+02    2.28561E+02    1.87039E+02    1.42145E+02    9.46618E+01    5.14238E+01    1.46574E+01   -1.01261E+01   -2.13163E+01   -2.12229E+01   -1.49888E+01   -8.33840E+00   -3.84243E+00   -1.56084E+00   -1.64383E-01   -1.69216E-02   -6.98934E-03  
  5.2      Z     -4.02882E+00   -3.99381E+00   -3.95568E+00   -3.92135E+00   -3.88733E+00   -2.46659E+04   -2.36618E+04   -2.28363E+04   -2.20156E+04   -2.12639E+04   -2.05453E+04   -1.98853E+04   -1.92012E+04   -1.85967E+04   -1.79695E+04   -1.74150E+04   -1.68394E+04   -1.63338E+04   -1.57731E+04   -1.53125E+04    1.00476E+04    9.77831E+03    9.67121E+03    9.52584E+03    9.34253E+03    9.14700E+03    8.90350E+03    8.59149E+03    8.21694E+03    7.74339E+03    7.16984E+03    6.47457E+03    5.69302E+03    4.81056E+03    3.87633E+03    2.95115E+03    2.12225E+03    1.40764E+03    8.60785E+02    4.84947E+02    2.52648E+02    5.24487E+01    8.65188E+00    4.25486E+00   -3.66261E+04   -3.49245E+04   -3.41430E+04   -3.29740E+04   -3.13004E+04   -2.93816E+04   -2.69393E+04   -2.39018E+04   -2.04095E+04   -1.63277E+04   -1.19259E+04   -7.29391E+03   -3.10836E+03    3.97367E+02    2.67490E+03    3.56119E+03    3.33788E+03    2.38658E+03    1.45050E+03    7.71392E+02    3.78126E+02    6.73140E+01    1.04189E+01    4.44199E+00  
  10.2     X     -1.37319E-01   -1.36053E-01   -1.34675E-01   -1.33435E-01   -1.32208E-01   -2.75171E+03   -2.58126E+03   -2.44205E+03   -2.30452E+03   -2.17941E+03   -2.06065E+03   -1.95234E+03   -1.84088E+03   -1.74311E+03   -1.64241E+03   -1.55404E+03   -1.46298E+03   -1.38360E+03   -1.29625E+03   -1.22507E+03    1.63986E+03    1.59146E+03    1.57202E+03    1.54543E+03    1.51158E+03    1.47517E+03    1.42961E+03    1.37123E+03    1.30139E+03    1.21363E+03    1.10830E+03    9.82207E+02    8.42883E+02    6.89250E+02    5.31791E+02    3.82601E+02    2.56380E+02    1.55325E+02    8.49667E+01    4.18738E+01    1.86797E+01    2.65719E+00    3.16476E-01    1.46107E-01   -4.11833E+03   -3.89083E+03   -3.78837E+03   -3.63649E+03   -3.42188E+03   -3.17799E+03   -2.86967E+03   -2.48841E+03   -2.05392E+03   -1.55152E+03   -1.01800E+03   -4.70633E+02    4.33621E+00    3.73179E+02    5.71921E+02    5.90661E+02    4.75668E+02    3.07128E+02    1.64257E+02    7.50224E+01    3.08921E+01    3.58561E+00    3.86642E-01    1.52057E-01  
  10.2     Y      5.94208E-03    5.89048E-03    5.83442E-03    5.78396E-03    5.73402E-03    1.56150E+03    1.55004E+03    1.54083E+03    1.53176E+03    1.52350E+03    1.51566E+03    1.50850E+03    1.50114E+03    1.49467E+03    1.48802E+03    1.48219E+03    1.47618E+03    1.47094E+03    1.46518E+03    1.46050E+03   -1.08521E+02   -1.05251E+02   -1.03913E+02   -1.02086E+02   -9.97866E+01   -9.73480E+01   -9.43221E+01   -9.04502E+01   -8.58098E+01   -7.99630E+01   -7.29237E+01   -6.44728E+01   -5.51171E+01   -4.47977E+01   -3.42478E+01   -2.43164E+01   -1.60082E+01   -9.46741E+00   -5.01781E+00   -2.37192E+00   -1.00104E+00   -1.20342E-01   -1.31358E-02   -6.27175E-03    2.29163E+03    2.21682E+03    2.18080E+03    2.12583E+03    2.04490E+03    1.95046E+03    1.82873E+03    1.67602E+03    1.49802E+03    1.28686E+03    1.05453E+03    8.01526E+02    5.60875E+02    3.40499E+02    1.68975E+02    5.81169E+01    4.56234E+00   -1.02066E+01   -8.51891E+00   -4.26642E+00   -1.71255E+00   -1.66951E-01   -1.60768E-02   -6.56312E-03  
  10.2     Z     -4.01958E+00   -3.98466E+00   -3.94663E+00   -3.91238E+00   -3.87845E+00   -2.49912E+04   -2.40135E+04   -2.32095E+04   -2.24101E+04   -2.16776E+04   -2.09773E+04   -2.03339E+04   -1.96668E+04   -1.90771E+04   -1.84653E+04   -1.79242E+04   -1.73622E+04   -1.68686E+04   -1.63209E+04   -1.58709E+04    9.79730E+03    9.53565E+03    9.43164E+03    9.29051E+03    9.11262E+03    8.92295E+03    8.68679E+03    8.38421E+03    8.02093E+03    7.56154E+03    7.00494E+03    6.32989E+03    5.57052E+03    4.71224E+03    3.80239E+03    2.89972E+03    2.08921E+03    1.38867E+03    8.51049E+02    4.80488E+02    2.50813E+02    5.22309E+01    8.62977E+00    4.24499E+00   -3.70881E+04   -3.53893E+04   -3.46078E+04   -3.34379E+04   -3.17612E+04   -2.98376E+04   -2.73878E+04   -2.43398E+04   -2.08333E+04   -1.67321E+04   -1.23051E+04   -7.63900E+03   -3.41186E+03    1.45095E+02    2.47993E+03    3.42455E+03    3.25450E+03    2.34093E+03    1.42927E+03    7.62749E+02    3.74915E+02    6.70127E+01    1.03917E+01    4.43174E+00  
  15.2     X     -2.00534E-01   -1.98684E-01   -1.96671E-01   -1.94861E-01   -1.93070E-01    6.53902E+02    8.94471E+02    1.09092E+03    1.28495E+03    1.46146E+03    1.62902E+03    1.78184E+03    1.93914E+03    2.07715E+03    2.21930E+03    2.34409E+03    2.47271E+03    2.58485E+03    2.70828E+03    2.80890E+03    2.31484E+03    2.24667E+03    2.21927E+03    2.18179E+03    2.13407E+03    2.08277E+03    2.01863E+03    1.93647E+03    1.83823E+03    1.71483E+03    1.56673E+03    1.38945E+03    1.19351E+03    9.77320E+02    7.55473E+02    5.44859E+02    3.66181E+02    2.22617E+02    1.22239E+02    6.04744E+01    2.70743E+01    3.87253E+00    4.62093E-01    2.13363E-01    8.29296E+02    9.53955E+02    1.00259E+03    1.06948E+03    1.15310E+03    1.23979E+03    1.34151E+03    1.46003E+03    1.58203E+03    1.70559E+03    1.81036E+03    1.86979E+03    1.85216E+03    1.72855E+03    1.48863E+03    1.15492E+03    7.91229E+02    4.68021E+02    2.40288E+02    1.08437E+02    4.46886E+01    5.22261E+00    5.64521E-01    2.22053E-01  
  15.2     Y     -3.81712E-03   -3.77827E-03   -3.73589E-03   -3.69794E-03   -3.66025E-03    1.48809E+02    1.50463E+02    1.51968E+02    1.53459E+02    1.54806E+02    1.56078E+02    1.57235E+02    1.58422E+02    1.59463E+02    1.60534E+02    1.61476E+02    1.62447E+02    1.63296E+02    1.64232E+02    1.64998E+02    1.73445E+01    1.69018E+01    1.67438E+01    1.65199E+01    1.62029E+01    1.58263E+01    1.53340E+01    1.47037E+01    1.39630E+01    1.30504E+01    1.19768E+01    1.07158E+01    9.34384E+00    7.84056E+00    6.28663E+00    4.77009E+00    3.41815E+00    2.25218E+00    1.36079E+00    7.53223E-01    3.83820E-01    7.32585E-02    9.47444E-03    4.11793E-03    2.16936E+02    2.11549E+02    2.08804E+02    2.04552E+02    1.98178E+02    1.90669E+02    1.80903E+02    1.68544E+02    1.53932E+02    1.36331E+02    1.16582E+02    9.44227E+01    7.24791E+01    5.11554E+01    3.29378E+01    1.91536E+01    1.04112E+01    5.11893E+00    2.53444E+00    1.23402E+00    5.81807E-01    9.49591E-02    1.15744E-02    4.24701E-03  
  15.2     Z     -4.02383E+00   -3.98888E+00   -3.95081E+00   -3.91653E+00   -3.88257E+00   -1.98898E+04   -1.89371E+04   -1.81533E+04   -1.73738E+04   -1.66594E+04   -1.59760E+04   -1.53481E+04   -1.46967E+04   -1.41207E+04   -1.35228E+04   -1.29939E+04   -1.24444E+04   -1.19614E+04   -1.14254E+04   -1.09850E+04    9.56600E+03    9.31180E+03    9.21081E+03    9.07384E+03    8.90129E+03    8.71742E+03    8.48854E+03    8.19530E+03    7.84319E+03    7.39777E+03    6.85783E+03    6.20252E+03    5.46461E+03    4.62942E+03    3.74233E+03    2.86005E+03    2.06549E+03    1.37639E+03    8.45631E+02    4.78507E+02    2.50241E+02    5.22368E+01    8.63797E+00    4.24944E+00   -2.96078E+04   -2.81456E+04   -2.74785E+04   -2.64835E+04   -2.50653E+04   -2.34441E+04   -2.13845E+04   -1.88266E+04   -1.58919E+04   -1.24697E+04   -8.79093E+03   -4.94173E+03   -1.49450E+03    1.34375E+03    3.11275E+03    3.68294E+03    3.32330E+03    2.34164E+03    1.42095E+03    7.58541E+02    3.73644E+02    6.70058E+01    1.04013E+01    4.43640E+00  
  20.2     X     -2.65249E-01   -2.62802E-01   -2.60140E-01   -2.57746E-01   -2.55377E-01   -1.51657E+03   -1.20743E+03   -9.55013E+02   -7.05747E+02   -4.78996E+02   -2.63718E+02   -6.73720E+01    1.34759E+02    3.12128E+02    4.94853E+02    6.55292E+02    8.20679E+02    9.64919E+02    1.12372E+03    1.25321E+03    2.97527E+03    2.88780E+03    2.85264E+03    2.80453E+03    2.74329E+03    2.67747E+03    2.59523E+03    2.48993E+03    2.36407E+03    2.20601E+03    2.01637E+03    1.78935E+03    1.53842E+03    1.26137E+03    9.76756E+02    7.06043E+02    4.75775E+02    2.90141E+02    1.59837E+02    7.93281E+01    3.56159E+01    5.11493E+00    6.11146E-01    2.82215E-01   -2.38395E+03   -2.12190E+03   -2.00957E+03   -1.84702E+03   -1.62565E+03   -1.38048E+03   -1.07662E+03   -7.06498E+02   -2.94717E+02    1.68055E+02    6.39380E+02    1.08643E+03    1.42189E+03    1.59912E+03    1.56324E+03    1.32370E+03    9.63913E+02    5.90995E+02    3.10129E+02    1.41542E+02    5.86607E+01    6.89536E+00    7.46591E-01    2.93711E-01  
  20.2     Y     -5.83329E-03   -5.77535E-03   -5.71236E-03   -5.65575E-03   -5.59955E-03    1.03263E+03    1.03833E+03    1.04313E+03    1.04786E+03    1.05214E+03    1.05618E+03    1.05986E+03    1.06364E+03    1.06695E+03    1.07034E+03    1.07332E+03    1.07639E+03    1.07906E+03    1.08200E+03    1.08439E+03    5.55605E+01    5.39489E+01    5.33178E+01    5.24443E+01    5.12973E+01    5.00273E+01    4.84210E+01    4.63708E+01    4.39409E+01    4.09166E+01    3.73225E+01    3.30633E+01    2.84024E+01    2.33019E+01    1.80952E+01    1.31553E+01    8.94433E+00    5.52679E+00    3.10166E+00    1.58086E+00    7.37310E-01    1.18157E-01    1.42516E-02    6.26952E-03    1.50842E+03    1.46738E+03    1.44699E+03    1.41550E+03    1.36836E+03    1.31277E+03    1.24057E+03    1.14948E+03    1.04241E+03    9.14203E+02    7.71423E+02    6.12923E+02    4.58095E+02    3.10446E+02    1.87721E+02    9.87496E+01    4.46915E+01    1.81165E+01    7.08624E+00    2.86825E+00    1.18861E+00    1.56545E-01    1.74435E-02    6.48340E-03  
  20.2     Z     -4.01616E+00   -3.98128E+00   -3.94329E+00   -3.90909E+00   -3.87520E+00   -2.28153E+04   -2.19098E+04   -2.11645E+04   -2.04228E+04   -1.97426E+04   -1.90916E+04   -1.84929E+04   -1.78716E+04   -1.73218E+04   -1.67508E+04   -1.62453E+04   -1.57198E+04   -1.52577E+04   -1.47445E+04   -1.43224E+04    9.12355E+03    8.88320E+03    8.78783E+03    8.65859E+03    8.49595E+03    8.32278E+03    8.10731E+03    7.83125E+03    7.49965E+03    7.07991E+03    6.57063E+03    5.95172E+03    5.25356E+03    4.46143E+03    3.61739E+03    2.77444E+03    2.01158E+03    1.34628E+03    8.30743E+02    4.72018E+02    2.47733E+02    5.19898E+01    8.61821E+00    4.24117E+00   -3.38645E+04   -3.23059E+04   -3.15892E+04   -3.05165E+04   -2.89796E+04   -2.72165E+04   -2.49713E+04   -2.21777E+04   -1.89637E+04   -1.52040E+04   -1.11446E+04   -6.86497E+03   -2.98653E+03    2.77916E+02    2.42001E+03    3.28174E+03    3.12416E+03    2.24996E+03    1.38418E+03    7.45092E+02    3.69046E+02    6.66538E+01    1.03767E+01    4.42784E+00  
  25.2     X     -3.11015E-01   -3.08145E-01   -3.05022E-01   -3.02213E-01   -2.99432E-01   -1.24308E+04   -1.20653E+04   -1.17669E+04   -1.14723E+04   -1.12044E+04   -1.09500E+04   -1.07180E+04   -1.04793E+04   -1.02697E+04   -1.00539E+04   -9.86438E+03   -9.66903E+03   -9.49866E+03   -9.31109E+03   -9.15815E+03    3.51544E+03    3.41201E+03    3.37042E+03    3.31351E+03    3.24105E+03    3.16319E+03    3.06591E+03    2.94140E+03    2.79260E+03    2.60580E+03    2.38174E+03    2.11360E+03    1.81727E+03    1.49015E+03    1.15410E+03    8.34395E+02    5.62365E+02    3.42973E+02    1.88916E+02    9.37190E+01    4.20434E+01    6.02130E+00    7.17168E-01    3.30937E-01   -1.83889E+04   -1.76190E+04   -1.72612E+04   -1.67233E+04   -1.59475E+04   -1.50539E+04   -1.39131E+04   -1.24921E+04   -1.08541E+04   -8.93477E+03   -6.85819E+03   -4.65789E+03   -2.64763E+03   -9.26009E+02    2.54644E+02    8.19251E+02    8.69580E+02    6.27660E+02    3.54576E+02    1.66132E+02    6.92285E+01    8.12068E+00    8.76249E-01    3.44406E-01  
