Data type: dB/dt; UNIT: nT/s
Number of stations: 121
Stations (m): 0.2 5.2 10.2 15.2 20.2 25.2 30.2 35.2 40.2 45.2 50.2 55.2 60.2 65.2 70.2 75.2 80.2 85.2 90.2 95.2 100.2 105.2 110.2 115.2 120.2 125.2 130.2 135.2 140.2 145.2 150.2 155.2 160.2 165.2 170.2 175.2 180.2 185.2 190.2 195.2 200.2 205.2 210.2 215.2 220.2 225.2 230.2 235.2 240.2 245.2 250.2 255.2 260.2 265.2 270.2 275.2 280.2 285.2 290.2 295.2 300.2 305.2 310.2 315.2 320.2 325.2 330.2 335.2 340.2 345.2 350.2 355.2 360.2 365.2 370.2 375.2 380.2 385.2 390.2 395.2 400.2 405.2 410.2 415.2 420.2 425.2 430.2 435.2 440.2 445.2 450.2 455.2 460.2 465.2 470.2 475.2 480.2 485.2 490.2 495.2 500.2 505.2 510.2 515.2 520.2 525.2 530.2 535.2 540.2 545.2 550.2 555.2 560.2 565.2 570.2 575.2 580.2 585.2 590.2 595.2 600.2
Channel times (ms):
   1     0.0010 
   2     0.0014 
   3     0.0020 
   4     0.0028 
   5     0.0040 
   6     0.0057 
   7     0.0080 
   8     0.0113 
   9     0.0160 
   10    0.0226 
   11    0.0320 
   12    0.0453 
   13    0.0640 
   14    0.0905 
   15    0.1280 
   16    0.1810 
   17    0.2560 
   18    0.3620 
   19    0.5120 
   20    0.7241 
   21    1.0240 
   22    1.4482 
   23    2.0480 
   24    2.8963 
   25    4.0960 
   26    5.7926 
   27    8.1920 
   28    11.5850
   29    16.3840
   30    23.1700
   31    32.7680
   32    46.3410
EM data:
Station Component      CH1            CH2            CH3            CH4            CH5            CH6            CH7            CH8            CH9           CH10           CH11           CH12           CH13           CH14           CH15           CH16           CH17           CH18           CH19           CH20           CH21           CH22           CH23           CH24           CH25           CH26           CH27           CH28           CH29           CH30           CH31           CH32      
  0.2      X      1.77241E+04    1.66372E+04    1.53462E+04    1.40792E+04    1.27535E+04    1.14569E+04    1.01901E+04    8.88314E+03    7.56778E+03    6.49223E+03    5.63753E+03    5.00366E+03    4.45208E+03    3.85109E+03    3.16456E+03    2.41624E+03    1.67858E+03    1.03867E+03    5.58472E+02    2.60811E+02    1.02741E+02    3.54251E+01    1.04009E+01    2.80239E+00    6.83946E-01    1.43100E-01    1.90714E-02    1.19330E-03    2.43278E-05    2.33147E-06    1.90126E-06    7.94503E-07  
  0.2      Y      2.25491E+03    1.83885E+03    1.41875E+03    1.04882E+03    6.89002E+02    3.81690E+02    1.59762E+02    2.18771E+01   -3.84961E+01   -3.44778E+01    2.60204E+00    3.79005E+01    5.36313E+01    5.49897E+01    5.05194E+01    4.28210E+01    3.25690E+01    2.13945E+01    1.16477E+01    5.21611E+00    1.89118E+00    6.13318E-01    1.97702E-01    7.18885E-02    2.33866E-02    5.37673E-03    6.95280E-04    4.04828E-05    6.92588E-07   -1.93422E-06   -2.57433E-06   -1.35222E-06  
  0.2      Z      4.96325E+05    4.54054E+05    4.07691E+05    3.64551E+05    3.20994E+05    2.80287E+05    2.43289E+05    2.08303E+05    1.76009E+05    1.51740E+05    1.33938E+05    1.21325E+05    1.10109E+05    9.74299E+04    8.25758E+04    6.58908E+04    4.86894E+04    3.27677E+04    1.96985E+04    1.05862E+04    4.97564E+03    2.11327E+03    7.93114E+02    2.74042E+02    8.14482E+01    1.87625E+01    2.57106E+00    1.61423E-01    3.32432E-03    1.25793E-05   -9.31547E-07   -1.36089E-06  
  5.2      X      2.59705E+04    2.41949E+04    2.21471E+04    2.01757E+04    1.81383E+04    1.61737E+04    1.42941E+04    1.24004E+04    1.05363E+04    9.04153E+03    7.87132E+03    7.00576E+03    6.24338E+03    5.40464E+03    4.44383E+03    3.39529E+03    2.36046E+03    1.46166E+03    7.86414E+02    3.67465E+02    1.44851E+02    5.00032E+01    1.47113E+01    3.97380E+00    9.72154E-01    2.03781E-01    2.71915E-02    1.70127E-03    3.45418E-05    2.04871E-06    2.40433E-06    1.72605E-06  
  5.2      Y      2.04964E+03    1.64869E+03    1.24370E+03    8.86791E+02    5.39502E+02    2.43451E+02    3.16557E+01   -9.55414E+01   -1.43013E+02   -1.25301E+02   -7.44869E+01   -2.76412E+01   -2.06201E+00    9.38996E+00    1.60045E+01    1.97625E+01    1.97500E+01    1.60652E+01    1.05143E+01    5.59953E+00    2.43253E+00    9.32902E-01    3.29577E-01    1.16387E-01    3.58811E-02    8.15716E-03    1.07251E-03    6.43556E-05    1.35823E-06   -1.43435E-06   -2.23053E-06   -1.35775E-06  
  5.2      Z      4.92718E+05    4.50633E+05    4.04503E+05    3.61599E+05    3.18292E+05    2.77833E+05    2.41086E+05    2.06369E+05    1.74355E+05    1.50323E+05    1.32714E+05    1.20246E+05    1.09157E+05    9.66157E+04    8.19199E+04    6.54058E+04    4.83687E+04    3.25829E+04    1.96084E+04    1.05490E+04    4.96301E+03    2.10959E+03    7.92220E+02    2.73844E+02    8.14075E+01    1.87548E+01    2.57005E+00    1.61360E-01    3.32300E-03    1.27938E-05   -5.82000E-07   -2.13154E-06  
  10.2     X      8.43002E+04    7.75280E+04    7.00028E+04    6.29375E+04    5.57568E+04    4.89819E+04    4.27257E+04    3.66896E+04    3.09947E+04    2.66045E+04    2.32760E+04    2.08306E+04    1.86211E+04    1.61420E+04    1.32875E+04    1.01665E+04    7.07954E+03    4.39110E+03    2.36575E+03    1.10636E+03    4.36351E+02    1.50776E+02    4.44530E+01    1.20413E+01    2.95409E+00    6.20742E-01    8.29689E-02    5.19377E-03    1.07060E-04    2.99066E-06    2.91434E-06    2.81025E-06  
  10.2     Y     -8.23505E+03   -7.72761E+03   -7.14690E+03   -6.59367E+03   -6.02606E+03   -5.47103E+03   -4.91549E+03   -4.32334E+03   -3.70881E+03   -3.18971E+03   -2.76247E+03   -2.43819E+03   -2.15845E+03   -1.85962E+03   -1.52174E+03   -1.15589E+03   -7.97927E+02   -4.90114E+02   -2.61380E+02   -1.21032E+02   -4.72573E+01   -1.61480E+01   -4.68291E+00   -1.23645E+00   -2.95236E-01   -6.13856E-02   -8.22696E-03   -5.18045E-04   -1.08381E-05   -1.31622E-06   -1.94202E-06   -1.30668E-06  
  10.2     Z      5.16044E+05    4.71775E+05    4.23293E+05    3.78230E+05    3.32766E+05    2.90316E+05    2.51794E+05    2.15443E+05    1.81964E+05    1.56863E+05    1.38484E+05    1.25464E+05    1.13862E+05    1.00733E+05    8.53541E+04    6.80860E+04    5.02877E+04    3.38166E+04    2.03021E+04    1.08886E+04    5.10335E+03    2.16023E+03    8.07761E+02    2.78198E+02    8.25025E+01    1.89877E+01    2.60129E+00    1.63317E-01    3.36330E-03    1.27016E-05   -1.14578E-06   -2.68882E-06  
  15.2     X      1.14773E+05    1.05359E+05    9.49451E+04    8.51975E+04    7.53110E+04    6.60094E+04    5.74618E+04    4.92651E+04    4.15790E+04    3.56878E+04    3.12425E+04    2.79797E+04    2.50219E+04    2.16966E+04    1.78685E+04    1.36841E+04    9.54285E+03    5.93064E+03    3.20267E+03    1.50131E+03    5.93441E+02    2.05446E+02    6.06711E+01    1.64563E+01    4.04122E+00    8.49694E-01    1.13605E-01    7.11137E-03    1.46584E-04    3.21965E-06    2.82413E-06    2.92821E-06  
  15.2     Y     -5.22294E+03   -4.95410E+03   -4.64322E+03   -4.34561E+03   -4.03821E+03   -3.72941E+03   -3.40358E+03   -3.03485E+03   -2.62929E+03   -2.26641E+03   -1.95265E+03   -1.71016E+03   -1.50673E+03   -1.29627E+03   -1.06124E+03   -8.07894E+02   -5.60283E+02   -3.46762E+02   -1.86893E+02   -8.76211E+01   -3.46571E+01   -1.19746E+01   -3.49933E+00   -9.26104E-01   -2.20904E-01   -4.59427E-02   -6.16834E-03   -3.89154E-04   -8.05432E-06   -1.68962E-06   -1.79023E-06   -1.04083E-06  
  15.2     Z      4.97709E+05    4.54906E+05    4.08056E+05    3.64526E+05    3.20620E+05    2.79642E+05    2.42481E+05    2.07446E+05    1.75213E+05    1.51076E+05    1.33436E+05    1.20966E+05    1.09870E+05    9.73125E+04    8.25918E+04    6.60351E+04    4.89229E+04    3.30233E+04    1.99108E+04    1.07248E+04    5.04692E+03    2.14345E+03    8.03568E+02    2.77237E+02    8.22982E+01    1.89479E+01    2.59609E+00    1.62992E-01    3.35696E-03    1.32845E-05   -4.92661E-07   -2.57780E-06  
  20.2     X      1.37596E+05    1.26125E+05    1.13479E+05    1.01670E+05    8.97120E+04    7.84872E+04    6.82134E+04    5.84111E+04    4.92665E+04    4.22928E+04    3.70554E+04    3.32206E+04    2.97404E+04    2.58242E+04    2.13152E+04    1.63806E+04    1.14819E+04    7.18487E+03    3.91310E+03    1.85166E+03    7.39145E+02    2.58257E+02    7.69222E+01    2.10152E+01    5.18823E+00    1.09372E+00    1.46346E-01    9.16124E-03    1.88502E-04    3.08087E-06    2.58127E-06    3.19189E-06  
  20.2     Y      1.02100E+03    7.76499E+02    5.15875E+02    2.77660E+02    4.28601E+01   -1.58320E+02   -3.03952E+02   -3.89957E+02   -4.08855E+02   -3.65125E+02   -2.85676E+02   -2.13072E+02   -1.66658E+02   -1.35792E+02   -1.08336E+02   -8.16843E+01   -5.76125E+01   -3.76745E+01   -2.23324E+01   -1.17842E+01   -5.25325E+00   -1.98953E+00   -6.05056E-01   -1.53886E-01   -3.36428E-02   -6.80213E-03   -9.42057E-04   -6.19973E-05   -1.80932E-06   -1.44329E-06   -1.70697E-06   -1.17614E-06  
  20.2     Z      4.34529E+05    3.97086E+05    3.56126E+05    3.18081E+05    2.79714E+05    2.43921E+05    2.11493E+05    1.80957E+05    1.52903E+05    1.31940E+05    1.16679E+05    1.05962E+05    9.64758E+04    8.57427E+04    7.31220E+04    5.88511E+04    4.39820E+04    3.00115E+04    1.83254E+04    1.00042E+04    4.77199E+03    2.05167E+03    7.77433E+02    2.70376E+02    8.06552E+01    1.86066E+01    2.55059E+00    1.60145E-01    3.29764E-03    1.29272E-05   -7.97973E-07   -3.20577E-06  
  25.2     X      1.71053E+05    1.56644E+05    1.40794E+05    1.26017E+05    1.11069E+05    9.70587E+04    8.42657E+04    7.20961E+04    6.07771E+04    5.21699E+04    4.57207E+04    4.10009E+04    3.67120E+04    3.18851E+04    2.63323E+04    2.02586E+04    1.42253E+04    8.92299E+03    4.87321E+03    2.31205E+03    9.24883E+02    3.23582E+02    9.64381E+01    2.63483E+01    6.50390E+00    1.37100E+00    1.83457E-01    1.14843E-02    2.36415E-04    3.41394E-06    2.44249E-06    2.99760E-06  
  25.2     Y     -2.25897E+03   -2.19371E+03   -2.12655E+03   -2.06723E+03   -2.00556E+03   -1.93395E+03   -1.83899E+03   -1.70494E+03   -1.52297E+03   -1.32401E+03   -1.12280E+03   -9.56821E+02   -8.25005E+02   -6.99616E+02   -5.65169E+02   -4.23769E+02   -2.88874E+02   -1.75359E+02   -9.24180E+01   -4.21953E+01   -1.61382E+01   -5.34399E+00   -1.47131E+00   -3.58378E-01   -7.81605E-02   -1.55899E-02   -2.09701E-03   -1.33640E-04   -3.24740E-06   -1.56125E-06   -1.90126E-06   -9.74915E-07  
  25.2     Z      4.21146E+05    3.84726E+05    3.44915E+05    3.07955E+05    2.70696E+05    2.35957E+05    2.04516E+05    1.74949E+05    1.47831E+05    1.27612E+05    1.12938E+05    1.02672E+05    9.36022E+04    8.33331E+04    7.12348E+04    5.75134E+04    4.31540E+04    2.95835E+04    1.81533E+04    9.95536E+03    4.76647E+03    2.05446E+03    7.79598E+02    2.71279E+02    8.09350E+01    1.86713E+01    2.55945E+00    1.60701E-01    3.30909E-03    1.28508E-05   -6.14092E-07   -2.78250E-06  
  30.2     X      1.90758E+05    1.74588E+05    1.56820E+05    1.40265E+05    1.23528E+05    1.07852E+05    9.35622E+04    7.99968E+04    6.74085E+04    5.78593E+04    5.07209E+04    4.55021E+04    4.07558E+04    3.54120E+04    2.92660E+04    2.25429E+04    1.58580E+04    9.97096E+03    5.46082E+03    2.59809E+03    1.04191E+03    3.65217E+02    1.08989E+02    2.98007E+01    7.35926E+00    1.55163E+00    2.07644E-01    1.29986E-02    2.67814E-04    4.02456E-06    3.02536E-06    3.83027E-06  
  30.2     Y      3.53456E+03    3.15117E+03    2.71151E+03    2.29088E+03    1.86342E+03    1.47090E+03    1.13095E+03    8.38238E+02    6.13833E+02    4.99679E+02    4.64181E+02    4.54653E+02    4.25109E+02    3.69535E+02    2.98950E+02    2.21159E+02    1.45228E+02    8.16298E+01    3.74570E+01    1.36745E+01    3.65546E+00    6.86468E-01    6.47913E-02   -1.59292E-03   -1.79737E-03   -6.81229E-04   -1.44836E-04   -1.23165E-05   -7.87564E-07   -1.04430E-06   -1.30104E-06   -1.00267E-06  
  30.2     Z      3.88080E+05    3.54426E+05    3.17667E+05    2.83559E+05    2.49187E+05    2.17156E+05    1.88196E+05    1.61000E+05    1.36098E+05    1.17575E+05    1.04188E+05    9.48813E+04    8.66963E+04    7.74200E+04    6.64487E+04    5.39349E+04    4.07397E+04    2.81498E+04    1.74255E+04    9.64020E+03    4.65373E+03    2.01966E+03    7.70567E+02    2.69132E+02    8.04643E+01    1.85780E+01    2.54719E+00    1.59936E-01    3.29359E-03    1.30659E-05   -2.08167E-08   -3.35842E-06  
  35.2     X      2.26235E+05    2.06842E+05    1.85585E+05    1.65815E+05    1.45850E+05    1.27182E+05    1.10209E+05    9.41517E+04    7.93058E+04    6.80862E+04    5.97302E+04    5.36352E+04    4.80901E+04    4.18433E+04    3.46560E+04    2.67823E+04    1.89275E+04    1.19716E+04    6.60145E+03    3.16225E+03    1.27596E+03    4.49354E+02    1.34536E+02    3.68573E+01    9.11138E+00    1.92195E+00    2.57242E-01    1.61036E-02    3.31207E-04    4.19109E-06    2.80331E-06    4.41314E-06  
  35.2     Y      5.60713E+03    5.06626E+03    4.44378E+03    3.84766E+03    3.24099E+03    2.67777E+03    2.17606E+03    1.72456E+03    1.35407E+03    1.13680E+03    1.03420E+03    9.82287E+02    9.14509E+02    8.12724E+02    6.85050E+02    5.39244E+02    3.88044E+02    2.49258E+02    1.38958E+02    6.69448E+01    2.70764E+01    9.56558E+00    2.89653E+00    8.13519E-01    2.06643E-01    4.39655E-02    5.85532E-03    3.64098E-04    7.04992E-06   -2.77556E-07   -1.49880E-06   -7.21645E-07  
  35.2     Z      3.76311E+05    3.43537E+05    3.07774E+05    2.74610E+05    2.41203E+05    2.10093E+05    1.82000E+05    1.55668E+05    1.31616E+05    1.13788E+05    1.00970E+05    9.21202E+04    8.43619E+04    7.55492E+04    6.50780E+04    5.30620E+04    4.02956E+04    2.80064E+04    1.74377E+04    9.69438E+03    4.69632E+03    2.04166E+03    7.79136E+02    2.71944E+02    8.12435E+01    1.87508E+01    2.57062E+00    1.61405E-01    3.32359E-03    1.38321E-05    9.31361E-08   -3.77876E-06  
  40.2     X      2.20992E+05    2.02026E+05    1.81245E+05    1.61922E+05    1.42412E+05    1.24173E+05    1.07593E+05    9.19153E+04    7.74286E+04    6.64893E+04    5.83519E+04    5.24254E+04    4.70389E+04    4.09699E+04    3.39814E+04    2.63145E+04    1.86486E+04    1.18378E+04    6.55640E+03    3.15599E+03    1.27997E+03    4.52946E+02    1.36217E+02    3.74574E+01    9.28507E+00    1.96115E+00    2.62582E-01    1.64392E-02    3.37619E-04    3.44169E-06    3.44169E-06    3.88578E-06  
  40.2     Y     -4.94022E+03   -4.53007E+03   -4.12284E+03   -3.76878E+03   -3.42096E+03   -3.09882E+03   -2.80692E+03   -2.52019E+03   -2.21765E+03   -1.93125E+03   -1.66083E+03   -1.43998E+03   -1.25690E+03   -1.07376E+03   -8.72539E+02   -6.57839E+02   -4.50309E+02   -2.73697E+02   -1.43762E+02   -6.50779E+01   -2.45667E+01   -8.02058E+00   -2.18624E+00   -5.33471E-01   -1.17602E-01   -2.35260E-02   -3.14658E-03   -2.00423E-04   -6.56419E-06    8.04912E-07   -2.59515E-06   -1.30451E-06  
  40.2     Z      3.20539E+05    2.92645E+05    2.62215E+05    2.34000E+05    2.05578E+05    1.79115E+05    1.55227E+05    1.32852E+05    1.12438E+05    9.73441E+04    8.65572E+04    7.91974E+04    7.28115E+04    6.55511E+04    5.68599E+04    4.67804E+04    3.59252E+04    2.53017E+04    1.59896E+04    9.02590E+03    4.43840E+03    1.95515E+03    7.54544E+02    2.65530E+02    7.97195E+01    1.84356E+01    2.52865E+00    1.58780E-01    3.26594E-03    1.17684E-05   -2.16493E-06   -5.19029E-06  
  45.2     X      2.40464E+05    2.19675E+05    1.96932E+05    1.75803E+05    1.54482E+05    1.34565E+05    1.16492E+05    9.94457E+04    8.37483E+04    7.19459E+04    6.32120E+04    5.68791E+04    5.11266E+04    4.46349E+04    3.71437E+04    2.88970E+04    2.06061E+04    1.31813E+04    7.36479E+03    3.57640E+03    1.46220E+03    5.20717E+02    1.57328E+02    4.33918E+01    1.07752E+01    2.27768E+00    3.05037E-01    1.91005E-02    3.94074E-04    3.13638E-06    3.35149E-06    5.85643E-06  
  45.2     Y     -1.02640E+03   -9.52120E+02   -9.16885E+02   -9.10542E+02   -9.13452E+02   -9.18561E+02   -9.23566E+02   -9.14245E+02   -8.58632E+02   -7.44472E+02   -5.85449E+02   -4.32525E+02   -3.08694E+02   -2.00636E+02   -9.97690E+01   -1.29061E+01    4.66601E+01    7.18285E+01    6.70409E+01    4.66867E+01    2.52394E+01    1.11439E+01    4.01647E+00    1.27410E+00    3.48524E-01    7.66806E-02    1.03324E-02    6.42680E-04    9.70751E-06    4.16334E-07   -1.11716E-06   -2.93515E-06  
  45.2     Z      2.91844E+05    2.66386E+05    2.38641E+05    2.12928E+05    1.87034E+05    1.62937E+05    1.41213E+05    1.20902E+05    1.02421E+05    8.88135E+04    7.91693E+04    7.26810E+04    6.71080E+04    6.07505E+04    5.30617E+04    4.40272E+04    3.41472E+04    2.43121E+04    1.55361E+04    8.85947E+03    4.39401E+03    1.94753E+03    7.54596E+02    2.66103E+02    7.99641E+01    1.84976E+01    2.53733E+00    1.59327E-01    3.27761E-03    1.43774E-05    1.83187E-06   -1.80411E-07  
  50.2     X      2.47717E+05    2.26184E+05    2.02659E+05    1.80822E+05    1.58794E+05    1.38228E+05    1.19592E+05    1.02056E+05    8.59547E+04    7.38963E+04    6.50202E+04    5.86213E+04    5.28198E+04    4.62581E+04    3.86557E+04    3.02410E+04    2.17186E+04    1.40132E+04    7.90679E+03    3.87817E+03    1.60073E+03    5.74591E+02    1.74709E+02    4.84054E+01    1.20559E+01    2.55185E+00    3.41884E-01    2.14095E-02    4.46282E-04   -3.77476E-06    4.46865E-06    1.04639E-05  
  50.2     Y      6.15665E+03    5.63824E+03    5.01065E+03    4.39475E+03    3.76189E+03    3.16374E+03    2.61057E+03    2.09160E+03    1.65213E+03    1.38739E+03    1.25645E+03    1.18682E+03    1.10143E+03    9.78285E+02    8.25571E+02    6.51614E+02    4.70905E+02    3.04042E+02    1.70223E+02    8.20602E+01    3.30050E+01    1.15100E+01    3.41379E+00    9.34847E-01    2.32225E-01    4.88696E-02    6.49819E-03    4.05564E-04    4.49640E-06   -7.10543E-06    2.77556E-06    6.10623E-06  
  50.2     Z      2.47067E+05    2.25525E+05    2.02058E+05    1.80312E+05    1.58412E+05    1.38040E+05    1.19695E+05    1.02574E+05    8.70390E+04    7.56633E+04    6.76990E+04    6.24662E+04    5.80572E+04    5.30035E+04    4.67854E+04    3.93197E+04    3.09530E+04    2.24013E+04    1.45606E+04    8.43773E+03    4.24545E+03    1.90322E+03    7.43773E+02    2.63743E+02    7.94946E+01    1.84102E+01    2.52603E+00    1.58613E-01    3.26134E-03    2.20379E-05   -5.49560E-06   -1.62648E-05  
  55.2     X      2.51536E+05    2.29582E+05    2.05624E+05    1.83398E+05    1.60979E+05    1.40052E+05    1.21109E+05    1.03319E+05    8.70305E+04    7.48777E+04    6.59803E+04    5.96052E+04    5.38381E+04    4.72990E+04    3.96900E+04    3.12190E+04    2.25741E+04    1.46834E+04    8.35946E+03    4.13661E+03    1.72120E+03    6.21734E+02    1.89912E+02    5.27720E+01    1.31661E+01    2.78902E+00    3.73741E-01    2.34022E-02    4.89109E-04    9.65894E-06    5.77316E-06    7.93809E-06  
  55.2     Y      1.54723E+03    1.44849E+03    1.27367E+03    1.07586E+03    8.64758E+02    6.59576E+02    4.59294E+02    2.67967E+02    1.25179E+02    7.93972E+01    1.07457E+02    1.52623E+02    1.73550E+02    1.71834E+02    1.58961E+02    1.37960E+02    1.09778E+02    7.79721E+01    4.80484E+01    2.55373E+01    1.14121E+01    4.44348E+00    1.48389E+00    4.55906E-01    1.23531E-01    2.69404E-02    3.59812E-03    2.25278E-04    1.12618E-05    3.80945E-06    6.32827E-06    6.26582E-06  
  55.2     Z      2.14337E+05    1.95661E+05    1.75325E+05    1.56480E+05    1.37502E+05    1.19860E+05    1.04000E+05    8.92333E+04    7.58808E+04    6.61701E+04    5.94779E+04    5.52178E+04    5.17219E+04    4.76823E+04    4.25844E+04    3.62805E+04    2.89943E+04    2.13158E+04    1.40693E+04    8.26388E+03    4.20400E+03    1.89908E+03    7.45660E+02    2.65016E+02    7.99494E+01    1.85202E+01    2.54127E+00    1.59582E-01    3.28607E-03    1.41553E-05    1.08247E-06   -3.21965E-06  
