Data type: dB/dt; UNIT: nT/s
Number of stations: 145
Stations (m): 0.2 2.7 5.2 7.7 10.2 12.7 15.2 17.7 20.2 22.7 25.2 27.7 30.2 32.7 35.2 37.7 40.2 42.7 45.2 47.7 50.2 52.7 55.2 57.7 60.2 62.7 65.2 67.7 70.2 72.7 75.2 77.7 80.2 82.7 85.2 87.7 90.2 92.7 95.2 97.7 100.2 102.7 105.2 107.7 110.2 112.7 115.2 117.7 120.2 122.7 125.2 127.7 130.2 132.7 135.2 137.7 140.2 142.7 145.2 147.7 150.2 152.7 155.2 157.7 160.2 162.7 165.2 167.7 170.2 172.7 175.2 177.7 180.2 182.7 185.2 187.7 190.2 192.7 195.2 197.7 200.2 202.7 205.2 207.7 210.2 212.7 215.2 217.7 220.2 222.7 225.2 227.7 230.2 232.7 235.2 237.7 240.2 242.7 245.2 247.7 250.2 252.7 255.2 257.7 260.2 262.7 265.2 267.7 270.2 272.7 275.2 277.7 280.2 282.7 285.2 287.7 290.2 292.7 295.2 297.7 300.2 302.7 305.2 307.7 310.2 312.7 315.2 317.7 320.2 322.7 325.2 327.7 330.2 332.7 335.2 337.7 340.2 342.7 345.2 347.7 350.2 352.7 355.2 357.7 360.2
Channel times (ms):
   1     0.0010 
   2     0.0014 
   3     0.0020 
   4     0.0028 
   5     0.0040 
   6     0.0057 
   7     0.0080 
   8     0.0113 
   9     0.0160 
   10    0.0226 
   11    0.0320 
   12    0.0453 
   13    0.0640 
   14    0.0905 
   15    0.1280 
   16    0.1810 
   17    0.2560 
   18    0.3620 
   19    0.5120 
   20    0.7241 
   21    1.0240 
   22    1.4482 
   23    2.0480 
   24    2.8963 
   25    4.0960 
   26    5.7926 
   27    8.1920 
   28    11.5850
   29    16.3840
   30    23.1700
   31    32.7680
   32    46.3410
EM data:
Station Component      CH1            CH2            CH3            CH4            CH5            CH6            CH7            CH8            CH9           CH10           CH11           CH12           CH13           CH14           CH15           CH16           CH17           CH18           CH19           CH20           CH21           CH22           CH23           CH24           CH25           CH26           CH27           CH28           CH29           CH30           CH31           CH32      
  0.2      X      1.56459E+04    1.48147E+04    1.41607E+04    1.35375E+04    1.27123E+04    1.16429E+04    1.03494E+04    8.78345E+03    6.92856E+03    5.09405E+03    3.32785E+03    1.90381E+03    9.37621E+02    3.91403E+02    1.39915E+02    4.23134E+01    1.02005E+01    1.65377E+00    1.36087E-01    4.38317E-03    3.53493E-05    3.41741E-07    5.20417E-09    5.37764E-08    1.23165E-07    4.79651E-07   -5.37764E-08   -1.94289E-07    1.30104E-08    3.72966E-08   -1.30972E-07   -8.93383E-08  
  0.2      Y     -1.95818E+03   -1.81624E+03   -1.75303E+03   -1.69441E+03   -1.59917E+03   -1.46714E+03   -1.30251E+03   -1.09758E+03   -8.48882E+02   -5.99474E+02   -3.60781E+02   -1.76117E+02   -6.32591E+01   -1.24155E+01    1.54810E+00    2.10765E+00    7.29391E-01    1.27676E-01    1.04864E-02    3.35454E-04    2.14065E-06    3.50414E-07   -2.77556E-08   -9.36751E-08   -5.68989E-07    4.75314E-07   -3.26128E-07   -2.81025E-07   -1.04083E-08   -1.38778E-07   -3.05311E-07   -2.15106E-07  
  0.2      Z      1.37207E+06    1.30623E+06    1.25755E+06    1.21096E+06    1.14804E+06    1.06560E+06    9.64779E+05    8.40722E+05    6.90071E+05    5.35439E+05    3.78252E+05    2.41015E+05    1.36916E+05    6.83855E+04    2.98266E+04    1.08068E+04    2.93766E+03    5.04307E+02    4.23951E+01    1.37415E+00    1.11403E-02    1.23304E-05    7.63278E-08    1.31839E-07   -1.94289E-07    3.19189E-07   -2.42861E-07    4.51028E-07   -5.75928E-07    1.87350E-07   -7.63278E-08    2.22045E-07  
  2.7      X      8.25002E+04    7.83021E+04    7.50524E+04    7.18729E+04    6.75798E+04    6.19828E+04    5.51911E+04    4.69402E+04    3.71290E+04    2.73861E+04    1.79673E+04    1.03401E+04    5.13970E+03    2.17955E+03    7.99911E+02    2.51246E+02    6.30222E+01    1.05149E+01    8.78075E-01    2.84262E-02    2.30358E-04    5.98696E-07    5.44269E-08    2.96421E-07    2.32019E-08    2.82977E-07    8.89046E-08   -4.27392E-07    5.00251E-07   -3.14419E-08    6.98226E-08   -1.47235E-07  
  2.7      Y      1.29182E+04    1.23036E+04    1.17858E+04    1.12759E+04    1.06012E+04    9.72842E+03    8.67313E+03    7.39517E+03    5.87902E+03    4.37350E+03    2.91211E+03    1.71575E+03    8.82788E+02    3.92034E+02    1.51541E+02    4.97808E+01    1.28105E+01    2.15615E+00    1.80377E-01    5.84074E-03    4.69624E-05    4.44089E-07   -1.66533E-07   -1.94289E-07   -8.04912E-07    3.88578E-07   -8.04912E-07   -2.22045E-07   -5.27356E-07    3.60822E-07   -4.71845E-07   -4.99600E-07  
  2.7      Z      1.42273E+06    1.35434E+06    1.30370E+06    1.25519E+06    1.18965E+06    1.10380E+06    9.98833E+05    8.69739E+05    7.13088E+05    5.52483E+05    3.89498E+05    2.47537E+05    1.40190E+05    6.97916E+04    3.03503E+04    1.09738E+04    2.98007E+03    5.11433E+02    4.29920E+01    1.39349E+00    1.12972E-02    1.27121E-05    3.60822E-07    4.44089E-07   -3.60822E-07    3.60822E-07   -1.66533E-07    6.38378E-07   -6.66134E-07    2.22045E-07    8.32667E-08    6.38378E-07  
  5.2      X      1.14536E+05    1.08722E+05    1.04229E+05    9.98284E+04    9.38790E+04    8.61209E+04    7.67062E+04    6.52673E+04    5.16612E+04    3.81420E+04    2.50597E+04    1.44499E+04    7.20069E+03    3.06330E+03    1.12856E+03    3.55912E+02    8.95721E+01    1.49739E+01    1.25154E+00    4.05279E-02    3.28237E-04    7.21645E-07    1.94289E-07    4.99600E-07   -1.11022E-07    3.33067E-07   -1.11022E-07   -3.60822E-07    4.71845E-07    4.44089E-07    2.77556E-08    2.77556E-08  
  5.2      Y     -4.49526E+03   -4.24043E+03   -4.08540E+03   -3.92936E+03   -3.69972E+03   -3.39199E+03   -3.01371E+03   -2.54876E+03   -1.99066E+03   -1.43459E+03   -9.01292E+02   -4.81128E+02   -2.11002E+02   -7.31790E+01   -2.00767E+01   -4.52423E+00   -9.15625E-01   -1.46357E-01   -1.24244E-02   -4.06432E-04   -3.78517E-06    6.52256E-07   -1.73472E-09   -2.65413E-07   -2.96638E-07    1.02349E-07   -5.37764E-07   -3.93782E-07   -2.06432E-07    3.24393E-07   -7.11237E-08   -4.61436E-07  
  5.2      Z      1.37868E+06    1.31252E+06    1.26361E+06    1.21680E+06    1.15357E+06    1.07073E+06    9.69428E+05    8.44786E+05    6.93426E+05    5.38062E+05    3.80117E+05    2.42200E+05    1.37574E+05    6.86990E+04    2.99546E+04    1.08505E+04    2.94917E+03    5.06264E+02    4.25595E+01    1.37948E+00    1.11836E-02    1.25941E-05    3.12250E-07    3.46945E-07   -3.46945E-07    3.53884E-07   -2.98372E-07    7.49401E-07   -7.21645E-07    2.77556E-07    4.16334E-08    5.62050E-07  
  7.7      X      1.70945E+05    1.62291E+05    1.55610E+05    1.49052E+05    1.40178E+05    1.28605E+05    1.14563E+05    9.75041E+04    7.72128E+04    5.70459E+04    3.75187E+04    2.16650E+04    1.08159E+04    4.61184E+03    1.70370E+03    5.38879E+02    1.35953E+02    2.27613E+01    1.90373E+00    6.16610E-02    4.99434E-04    1.38778E-06   -4.44089E-07    4.99600E-07    5.55112E-07    4.99600E-07   -1.66533E-07    5.55112E-08    7.77156E-07    2.77556E-07   -2.22045E-07   -2.77556E-07  
  7.7      Y      4.46104E+03    4.25507E+03    4.05845E+03    3.87270E+03    3.64028E+03    3.34555E+03    2.99319E+03    2.57075E+03    2.07298E+03    1.57813E+03    1.09056E+03    6.77289E+02    3.72533E+02    1.78282E+02    7.38812E+01    2.55120E+01    6.71939E+00    1.13683E+00    9.50636E-02    3.07655E-03    2.44388E-05    8.32667E-08   -5.55112E-08   -2.63678E-07   -7.63278E-07    9.71445E-08   -8.04912E-07   -8.04912E-07   -3.05311E-07   -2.49800E-07   -4.85723E-07   -3.88578E-07  
  7.7      Z      1.35845E+06    1.29333E+06    1.24523E+06    1.19922E+06    1.13707E+06    1.05566E+06    9.56083E+05    8.33542E+05    6.84673E+05    5.31756E+05    3.76127E+05    2.40018E+05    1.36561E+05    6.83036E+04    2.98222E+04    1.08120E+04    2.93993E+03    5.04742E+02    4.24325E+01    1.37536E+00    1.11497E-02    1.20737E-05    1.38778E-07    4.16334E-07   -1.94289E-07    5.82867E-07   -4.16334E-07    7.21645E-07   -8.04912E-07    0.00000E+00   -3.33067E-07    7.77156E-07  
  10.2     X      1.97762E+05    1.87756E+05    1.80032E+05    1.72446E+05    1.62178E+05    1.48789E+05    1.32546E+05    1.12816E+05    8.93500E+04    6.60275E+04    4.34412E+04    2.50973E+04    1.25373E+04    5.34976E+03    1.97795E+03    6.26155E+02    1.58080E+02    2.64768E+01    2.21490E+00    7.17446E-02    5.81146E-04    4.99600E-07   -1.66533E-07    1.11022E-07    2.22045E-07    2.77556E-07   -3.88578E-07   -7.21645E-07    4.99600E-07    4.99600E-07   -5.55112E-08   -1.33227E-06  
  10.2     Y      1.24760E+03    1.19360E+03    1.11558E+03    1.04958E+03    9.80558E+02    8.99202E+02    8.06119E+02    6.99533E+02    5.79290E+02    4.62622E+02    3.45652E+02    2.38513E+02    1.48060E+02    7.98283E+01    3.64409E+01    1.33752E+01    3.61155E+00    6.13317E-01    5.11933E-02    1.65556E-03    1.30451E-05    1.02696E-06    2.22045E-07   -3.88578E-07   -8.04912E-07    3.05311E-07   -6.38378E-07   -1.36002E-06    0.00000E+00    4.71845E-07   -1.66533E-07   -2.77556E-07  
  10.2     Z      1.35403E+06    1.28915E+06    1.24124E+06    1.19542E+06    1.13355E+06    1.05249E+06    9.53343E+05    8.31323E+05    6.83062E+05    5.30720E+05    3.75595E+05    2.39827E+05    1.36537E+05    6.83285E+04    2.98444E+04    1.08224E+04    2.94302E+03    5.05286E+02    4.24785E+01    1.37685E+00    1.11627E-02    1.31006E-05    7.21645E-07    5.27356E-07   -1.19349E-06    7.21645E-07   -1.38778E-07    1.11022E-07   -6.10623E-07   -8.88178E-07    3.33067E-07    1.36002E-06  
  12.7     X      2.55381E+05    2.42468E+05    2.32501E+05    2.22707E+05    2.09447E+05    1.92161E+05    1.71200E+05    1.45747E+05    1.15482E+05    8.53990E+04    5.62494E+04    3.25469E+04    1.62892E+04    6.96546E+03    2.58092E+03    8.18650E+02    2.06967E+02    3.46900E+01    2.90283E+00    9.40367E-02    7.62168E-04    1.55431E-06    4.44089E-07   -1.11022E-07   -6.66134E-07    4.44089E-07   -2.22045E-07   -2.22045E-07    2.22045E-07   -1.11022E-07   -1.11022E-07    1.11022E-07  
  12.7     Y      6.66026E+03    6.31744E+03    6.01809E+03    5.73751E+03    5.37821E+03    4.91750E+03    4.36360E+03    3.69769E+03    2.91541E+03    2.14843E+03    1.41536E+03    8.25766E+02    4.22213E+02    1.87352E+02    7.26808E+01    2.39557E+01    6.16285E+00    1.03464E+00    8.63749E-02    2.79465E-03    2.24820E-05    9.99201E-07    7.77156E-07   -7.77156E-07   -1.11022E-06    4.99600E-07   -5.55112E-07   -1.16573E-06    1.66533E-07    5.55112E-08   -1.66533E-07    5.55112E-08  
  12.7     Z      1.33350E+06    1.26968E+06    1.22261E+06    1.17762E+06    1.11688E+06    1.03729E+06    9.39937E+05    8.20089E+05    6.74388E+05    5.24544E+05    3.71757E+05    2.37785E+05    1.35625E+05    6.79926E+04    2.97399E+04    1.07944E+04    2.93663E+03    5.04253E+02    4.23926E+01    1.37407E+00    1.11398E-02    1.25455E-05    9.99201E-07    7.77156E-07   -1.55431E-06    1.22125E-06   -3.33067E-07    2.22045E-07   -1.33227E-06    0.00000E+00   -3.33067E-07    1.22125E-06  
  15.2     X      3.00547E+05    2.85356E+05    2.73634E+05    2.62110E+05    2.46509E+05    2.26181E+05    2.01539E+05    1.71631E+05    1.36074E+05    1.00725E+05    6.64441E+04    3.85241E+04    1.93286E+04    8.28781E+03    3.07918E+03    9.78899E+02    2.47825E+02    4.15633E+01    3.47868E+00    1.12697E-01    9.12798E-04    1.40166E-06   -9.71445E-08    1.52656E-07   -4.16334E-08    6.52256E-07   -5.68989E-07   -3.19189E-07    1.80411E-07    2.77556E-08   -6.93889E-08   -5.55112E-08  
  15.2     Y     -1.36607E+03   -1.31243E+03   -1.30175E+03   -1.27233E+03   -1.20971E+03   -1.11947E+03   -1.00434E+03   -8.57319E+02   -6.73663E+02   -4.83824E+02   -2.96649E+02   -1.47644E+02   -5.41901E+01   -1.10701E+01    1.11281E+00    1.74426E+00    6.11069E-01    1.06890E-01    8.74667E-03    2.79388E-04    1.22125E-06    1.22125E-06   -4.44089E-07   -4.44089E-07   -5.55112E-07    2.22045E-07   -2.22045E-07   -1.22125E-06   -3.33067E-07   -2.77556E-07    1.11022E-07   -8.88178E-07  
  15.2     Z      1.30504E+06    1.24268E+06    1.19676E+06    1.15292E+06    1.09373E+06    1.01618E+06    9.21286E+05    8.04420E+05    6.62238E+05    5.15836E+05    3.66287E+05    2.34825E+05    1.34272E+05    6.74766E+04    2.95720E+04    1.07471E+04    2.92549E+03    5.02430E+02    4.22406E+01    1.36915E+00    1.10995E-02    1.25455E-05    3.33067E-07    2.22045E-07   -7.77156E-07    5.55112E-07   -5.55112E-07    6.66134E-07   -1.55431E-06   -4.44089E-07   -3.33067E-07    5.55112E-07  
  17.7     X      3.30529E+05    3.13817E+05    3.00915E+05    2.88227E+05    2.71047E+05    2.48664E+05    2.21540E+05    1.88627E+05    1.49510E+05    1.10637E+05    7.29524E+04    4.22747E+04    2.11952E+04    9.08006E+03    3.37030E+03    1.07063E+03    2.70954E+02    4.54398E+01    3.80323E+00    1.23214E-01    9.97202E-04    1.77636E-06   -4.44089E-07    0.00000E+00    4.44089E-07    0.00000E+00    4.44089E-07    0.00000E+00    0.00000E+00    0.00000E+00    2.22045E-07   -2.22045E-07  
  17.7     Y     -3.68892E+03   -3.52004E+03   -3.41334E+03   -3.28295E+03   -3.08191E+03   -2.81190E+03   -2.48056E+03   -2.07465E+03   -1.59058E+03   -1.11404E+03   -6.66663E+02   -3.27120E+02   -1.22419E+02   -2.95102E+01   -1.66392E+00    1.91819E+00    8.02898E-01    1.47241E-01    1.22525E-02    3.92936E-04    3.83027E-06    8.88178E-07    1.66533E-07    1.94289E-07   -1.05471E-06    4.71845E-07   -1.41553E-06   -4.16334E-07   -3.33067E-07    8.60423E-07   -1.02696E-06   -3.88578E-07  
  17.7     Z      1.29691E+06    1.23499E+06    1.18943E+06    1.14596E+06    1.08727E+06    1.01037E+06    9.16276E+05    8.00364E+05    6.59284E+05    5.13917E+05    3.65278E+05    2.34437E+05    1.34198E+05    6.75043E+04    2.96042E+04    1.07630E+04    2.93030E+03    5.03280E+02    4.23125E+01    1.37148E+00    1.11194E-02    1.23512E-05    6.38378E-07   -2.77556E-07   -8.04912E-07    5.82867E-07   -3.60822E-07    4.99600E-07   -4.71845E-07    5.55112E-08    5.27356E-07    1.36002E-06  
  20.2     X      3.90164E+05    3.70428E+05    3.55191E+05    3.40202E+05    3.19912E+05    2.93488E+05    2.61484E+05    2.22669E+05    1.76557E+05    1.30732E+05    8.62898E+04    5.00715E+04    2.51443E+04    1.07897E+04    4.01100E+03    1.27573E+03    3.23112E+02    5.42066E+01    4.53758E+00    1.47009E-01    1.19094E-03    2.55351E-06    5.55112E-07    1.11022E-07   -2.22045E-07   -2.22045E-07   -3.33067E-07    3.33067E-07    3.33067E-07    2.22045E-07   -6.66134E-07   -6.66134E-07  
  20.2     Y      3.34339E+03    3.14065E+03    2.96246E+03    2.81486E+03    2.63951E+03    2.41872E+03    2.15545E+03    1.84122E+03    1.47376E+03    1.11263E+03    7.62195E+02    4.70322E+02    2.58325E+02    1.24206E+02    5.19021E+01    1.80499E+01    4.76681E+00    8.06078E-01    6.73319E-02    2.17815E-03    1.74305E-05    1.33227E-06    5.55112E-07   -1.11022E-07   -4.44089E-07    1.11022E-06   -1.55431E-06    2.22045E-07   -2.22045E-07    0.00000E+00   -8.88178E-07   -9.99201E-07  
  20.2     Z      1.29824E+06    1.23631E+06    1.19078E+06    1.14735E+06    1.08873E+06    1.01191E+06    9.17906E+05    8.02081E+05    6.61052E+05    5.15638E+05    3.66803E+05    2.35618E+05    1.34974E+05    6.79258E+04    2.97937E+04    1.08316E+04    2.94886E+03    5.06458E+02    4.25796E+01    1.38014E+00    1.11882E-02    1.26565E-05    4.44089E-07    1.33227E-06   -1.33227E-06    1.11022E-06   -4.44089E-07    6.66134E-07   -1.11022E-06    2.22045E-07    2.22045E-07    2.22045E-07  
  22.7     X      4.27754E+05    4.06139E+05    3.89460E+05    3.73055E+05    3.50852E+05    3.21949E+05    2.86958E+05    2.44532E+05    1.94125E+05    1.43996E+05    9.52967E+04    5.54926E+04    2.79847E+04    1.20644E+04    4.50485E+03    1.43789E+03    3.64906E+02    6.12613E+01    5.12898E+00    1.66175E-01    1.34626E-03    3.55271E-06   -6.66134E-07    2.22045E-07    0.00000E+00    2.22045E-07    6.66134E-07   -8.88178E-07    1.55431E-06    1.77636E-06    4.44089E-07    0.00000E+00  
  22.7     Y      1.56628E+03    1.44604E+03    1.33714E+03    1.26271E+03    1.18830E+03    1.10032E+03    9.99403E+02    8.82986E+02    7.49063E+02    6.14034E+02    4.70601E+02    3.30439E+02    2.06268E+02    1.10735E+02    5.01800E+01    1.83495E+01    4.96186E+00    8.45443E-01    7.07323E-02    2.28795E-03    1.82077E-05    5.55112E-07    1.11022E-07   -2.22045E-07   -7.77156E-07    1.99840E-06   -1.44329E-06   -3.33067E-07   -6.66134E-07   -5.55112E-07   -8.88178E-07   -8.88178E-07  
  22.7     Z      1.21478E+06    1.15711E+06    1.11490E+06    1.07476E+06    1.02059E+06    9.49576E+05    8.62592E+05    7.55261E+05    6.24274E+05    4.88761E+05    3.49402E+05    2.25785E+05    1.30203E+05    6.59628E+04    2.90959E+04    1.06180E+04    2.89587E+03    4.97626E+02    4.18408E+01    1.35621E+00    1.09946E-02    1.15463E-05    5.55112E-07    1.22125E-06    5.55112E-07    1.22125E-06   -1.11022E-07    1.66533E-06   -5.55112E-07   -9.99201E-07   -1.55431E-06    2.22045E-07  
  25.2     X      4.59299E+05    4.36094E+05    4.18192E+05    4.00588E+05    3.76766E+05    3.45764E+05    3.08237E+05    2.62744E+05    2.08692E+05    1.54922E+05    1.02645E+05    5.98615E+04    3.02415E+04    1.30620E+04    4.88599E+03    1.56170E+03    3.96636E+02    6.66075E+01    5.57700E+00    1.80694E-01    1.46314E-03    3.38618E-06    1.19349E-06    1.94289E-07    2.24820E-06    6.93889E-07    4.44089E-07   -2.77556E-07    5.82867E-07    1.05471E-06   -1.38778E-06   -1.30451E-06  
  25.2     Y      7.37423E+03    6.94504E+03    6.59622E+03    6.28552E+03    5.89095E+03    5.38618E+03    4.78152E+03    4.05721E+03    3.20847E+03    2.37618E+03    1.57720E+03    9.28570E+02    4.78904E+02    2.13859E+02    8.32664E+01    2.75122E+01    7.09426E+00    1.19316E+00    9.97002E-02    3.22609E-03    2.46470E-05    8.88178E-07    1.33227E-06   -1.11022E-07   -5.55112E-07    1.99840E-06   -2.22045E-06   -1.11022E-06   -2.22045E-07    1.11022E-07   -5.55112E-07   -4.44089E-07  
  25.2     Z      1.18468E+06    1.12859E+06    1.08762E+06    1.04873E+06    9.96258E+05    9.27446E+05    8.43114E+05    7.38971E+05    6.11714E+05    4.79817E+05    3.43833E+05    2.22811E+05    1.28870E+05    6.54705E+04    2.89429E+04    1.05770E+04    2.88658E+03    4.96125E+02    4.17160E+01    1.35217E+00    1.09606E-02    1.28786E-05    1.33227E-06    1.77636E-06    1.11022E-06    8.88178E-07    6.66134E-07    1.33227E-06    1.33227E-06    4.44089E-07   -6.66134E-07    1.11022E-06  
  27.7     X      4.93168E+05    4.68259E+05    4.49050E+05    4.30164E+05    4.04618E+05    3.71385E+05    3.31179E+05    2.82456E+05    2.24571E+05    1.66957E+05    1.10866E+05    6.48462E+04    3.28737E+04    1.42515E+04    5.34939E+03    1.71440E+03    4.36066E+02    7.32674E+01    6.13535E+00    1.98788E-01    1.60932E-03    3.74700E-06    4.44089E-07   -5.55112E-07   -3.05311E-06    2.19269E-06   -6.38378E-07   -3.33067E-07   -4.44089E-07    1.33227E-06   -8.32667E-08   -8.32667E-07  
  27.7     Y     -2.37269E+03   -2.31946E+03   -2.29307E+03   -2.23248E+03   -2.12478E+03   -1.97663E+03   -1.79169E+03   -1.55906E+03   -1.26967E+03   -9.66081E+02   -6.53892E+02   -3.84418E+02   -1.90756E+02   -7.78772E+01   -2.65579E+01   -7.72778E+00   -1.87388E+00   -3.14291E-01   -2.65684E-02   -8.63531E-04   -7.10543E-06    7.21645E-07   -1.66533E-07    1.49880E-06   -1.22125E-06    1.38778E-06   -5.55112E-07    7.21645E-07    2.77556E-07   -1.72085E-06   -9.99201E-07    4.44089E-07  
  27.7     Z      1.14206E+06    1.08822E+06    1.04905E+06    1.01197E+06    9.61949E+05    8.96309E+05    8.15785E+05    7.16199E+05    5.94247E+05    4.67464E+05    3.36220E+05    2.18806E+05    1.27117E+05    6.48473E+04    2.87602E+04    1.05316E+04    2.87685E+03    4.94588E+02    4.15888E+01    1.34804E+00    1.09268E-02    1.26565E-05    1.55431E-06   -2.22045E-07   -1.99840E-06   -2.22045E-07   -2.22045E-07    1.11022E-06   -2.22045E-06   -1.33227E-06    0.00000E+00    6.66134E-07  
