Data type: dB/dt; UNIT: nT/s
Number of stations: 145
Stations (m): 0.2 2.7 5.2 7.7 10.2 12.7 15.2 17.7 20.2 22.7 25.2 27.7 30.2 32.7 35.2 37.7 40.2 42.7 45.2 47.7 50.2 52.7 55.2 57.7 60.2 62.7 65.2 67.7 70.2 72.7 75.2 77.7 80.2 82.7 85.2 87.7 90.2 92.7 95.2 97.7 100.2 102.7 105.2 107.7 110.2 112.7 115.2 117.7 120.2 122.7 125.2 127.7 130.2 132.7 135.2 137.7 140.2 142.7 145.2 147.7 150.2 152.7 155.2 157.7 160.2 162.7 165.2 167.7 170.2 172.7 175.2 177.7 180.2 182.7 185.2 187.7 190.2 192.7 195.2 197.7 200.2 202.7 205.2 207.7 210.2 212.7 215.2 217.7 220.2 222.7 225.2 227.7 230.2 232.7 235.2 237.7 240.2 242.7 245.2 247.7 250.2 252.7 255.2 257.7 260.2 262.7 265.2 267.7 270.2 272.7 275.2 277.7 280.2 282.7 285.2 287.7 290.2 292.7 295.2 297.7 300.2 302.7 305.2 307.7 310.2 312.7 315.2 317.7 320.2 322.7 325.2 327.7 330.2 332.7 335.2 337.7 340.2 342.7 345.2 347.7 350.2 352.7 355.2 357.7 360.2
Channel times (ms):
   1    -1.9500 
   2    -1.8500 
   3    -1.7500 
   4    -1.6500 
   5    -1.5500 
   6    -1.4495 
   7    -1.3500 
   8    -1.2500 
   9    -1.1500 
   10   -1.0500 
   11   -0.9500 
   12   -0.8500 
   13   -0.7500 
   14   -0.6500 
   15   -0.5500 
   16   -0.4500 
   17   -0.3500 
   18   -0.2500 
   19   -0.1500 
   20   -0.0500 
   21    0.0255 
   22    0.0550 
   23    0.0700 
   24    0.0950 
   25    0.1300 
   26    0.1750 
   27    0.2350 
   28    0.3150 
   29    0.4200 
   30    0.5600 
   31    0.7450 
   32    0.9900 
   33    1.3150 
   34    1.7450 
   35    2.3150 
   36    3.0750 
   37    4.0850 
   38    5.4250 
   39    7.2050 
   40    9.5700 
   41    12.6600
   42    22.7300
   43    39.3950
   44    48.1150
   45    48.5255
   46    48.5550
   47    48.5700
   48    48.5950
   49    48.6300
   50    48.6750
   51    48.7350
   52    48.8150
   53    48.9200
   54    49.0600
   55    49.2450
   56    49.4900
   57    49.8150
   58    50.2450
   59    50.8150
   60    51.5750
   61    52.5850
   62    53.9250
   63    55.7050
   64    58.0700
   65    61.1600
   66    71.2300
   67    87.8950
   68    97.1150
EM data:
Station Component      CH1            CH2            CH3            CH4            CH5            CH6            CH7            CH8            CH9           CH10           CH11           CH12           CH13           CH14           CH15           CH16           CH17           CH18           CH19           CH20           CH21           CH22           CH23           CH24           CH25           CH26           CH27           CH28           CH29           CH30           CH31           CH32           CH33           CH34           CH35           CH36           CH37           CH38           CH39           CH40           CH41           CH42           CH43           CH44           CH45           CH46           CH47           CH48           CH49           CH50           CH51           CH52           CH53           CH54           CH55           CH56           CH57           CH58           CH59           CH60           CH61           CH62           CH63           CH64           CH65           CH66           CH67           CH68      
  0.2      X      4.16334E-08    5.20417E-08    2.36790E-07    3.81639E-08    1.73472E-07   -3.21677E+01   -2.78557E+00   -4.45674E-01   -6.27426E-02    3.83991E-03    1.69001E-02    1.94167E-02    1.99926E-02    2.01022E-02    2.01274E-02    2.01322E-02    2.01333E-02    2.01335E-02    2.01335E-02    2.01335E-02    7.66955E+01    2.83790E+01    1.81808E+01    9.65697E+00    4.24205E+00    1.75730E+00    5.92657E-01    1.49664E-01    2.73778E-02    2.84147E-03    1.59745E-04    3.31057E-06    2.45275E-08    2.30816E-11   -1.82536E-10   -8.47033E-11   -3.81165E-11   -1.02279E-10   -9.16913E-11   -5.92923E-11   -1.41878E-10   -8.93620E-11   -1.19220E-10    2.32934E-11   -1.14523E+02   -3.55856E+01   -1.98828E+01   -6.88380E+00    1.37353E+00    4.96262E+00    6.36371E+00    6.48700E+00    6.03553E+00    5.28232E+00    4.41267E+00    3.44634E+00    2.50834E+00    1.63454E+00    9.24378E-01    4.32300E-01    2.06969E-01    4.10996E-02    6.99825E-03    6.73452E-04    3.25634E-05   -1.63931E-07   -8.93383E-08   -1.35308E-07  
  0.2      Y      1.66533E-07    2.98372E-07    3.53884E-07    1.35308E-07    2.67147E-07    1.35385E+00   -1.35286E-01   -2.57345E-02    2.33578E-03    7.47456E-03    8.48255E-03    8.67614E-03    8.72012E-03    8.72858E-03    8.73046E-03    8.73088E-03    8.73092E-03    8.73089E-03    8.73087E-03    8.73087E-03   -5.95840E+00   -1.02634E+00   -2.92746E-01    1.06760E-01    1.70772E-01    1.06859E-01    4.30945E-02    1.14929E-02    2.11351E-03    2.18181E-04    1.22239E-05    2.52961E-07    1.85839E-09    6.77626E-12   -2.03288E-11   -4.40457E-11   -4.23516E-11   -1.01644E-11   -7.11508E-11    3.89635E-11   -6.09864E-11    1.69407E-11   -3.38813E-12    1.69407E-12    8.98419E+00    9.55267E-01   -1.50029E-01   -7.28947E-01   -8.03268E-01   -6.75972E-01   -5.44195E-01   -4.56829E-01   -3.98925E-01   -3.44117E-01   -2.87359E-01   -2.24081E-01   -1.63400E-01   -1.06274E-01   -6.01006E-02   -2.81070E-02   -5.83486E-03   -2.67243E-03   -4.55518E-04   -4.43361E-05   -2.43555E-06   -2.98372E-07   -2.04697E-07   -4.30211E-07  
  0.2      Z      2.08167E-08   -1.38778E-08   -3.46945E-08   -6.24500E-08   -4.16334E-08   -5.43536E+03   -7.29406E+02   -1.37550E+02   -2.54364E+01   -5.06626E+00   -1.01072E+00   -2.24556E-01   -4.41795E-02   -9.82872E-03   -1.90721E-03   -3.98497E-04   -5.06130E-05    1.46790E-05    3.07610E-05    3.37040E-05    1.06591E+04    4.92711E+03    3.47296E+03    2.08812E+03    1.04687E+03    4.78977E+02    1.73301E+02    4.55319E+01    8.48783E+00    8.88490E-01    5.01021E-02    1.03929E-03    7.71351E-06    1.32002E-08   -6.09864E-11   -5.42101E-11    3.38813E-12    0.00000E+00    1.69407E-11    3.38813E-12    2.03288E-11   -5.42101E-11   -5.08220E-11    0.00000E+00   -1.58655E+04   -6.47741E+03   -4.21717E+03   -2.07812E+03   -4.67988E+02    3.85056E+02    8.06143E+02    9.22918E+02    8.87029E+02    7.82003E+02    6.53472E+02    5.10715E+02    3.71437E+02    2.42232E+02    1.36989E+02    6.40652E+01    8.01717E+01    6.09081E+00    1.03722E+00    9.98718E-02    4.83431E-03    4.57967E-07    1.59595E-07    3.19189E-07  
  2.7      X      1.61763E-07   -2.77556E-08   -3.46945E-09    3.68412E-07    1.95156E-08   -1.79258E+02   -1.67721E+01   -2.89334E+00   -5.08775E-01   -8.44863E-02   -4.19750E-04    1.58537E-02    1.95856E-02    2.02963E-02    2.04601E-02    2.04912E-02    2.04984E-02    2.04997E-02    2.05001E-02    2.05002E-02    4.19978E+02    1.58525E+02    1.02711E+02    5.55683E+01    2.50592E+01    1.06645E+01    3.69108E+00    9.50715E-01    1.76030E-01    1.83882E-02    1.03635E-03    2.14942E-05    1.59432E-07    2.71051E-10   -5.42101E-11   -1.08420E-10   -1.62630E-10   -1.08420E-10   -1.08420E-10   -1.08420E-10   -1.62630E-10   -1.62630E-10    5.42101E-11    0.00000E+00   -6.27096E+02   -1.99839E+02   -1.13822E+02   -4.18272E+01    4.79201E+00    2.57179E+01    3.43397E+01    3.55006E+01    3.31807E+01    2.90719E+01    2.42876E+01    1.89704E+01    1.38062E+01    8.99744E+00    5.08829E+00    2.37962E+00    1.04632E+00    2.26236E-01    3.85242E-02    3.70881E-03    1.79249E-04   -3.62991E-07   -8.89046E-09   -2.22045E-07  
  2.7      Y      4.99600E-07    4.71845E-07    3.05311E-07    4.44089E-07    4.71845E-07   -3.18671E+01   -3.32771E+00   -5.85980E-01   -9.99830E-02   -1.29560E-02    4.30941E-03    7.65296E-03    8.41978E-03    8.56580E-03    8.59927E-03    8.60574E-03    8.60722E-03    8.60746E-03    8.60751E-03    8.60748E-03    7.11623E+01    2.83892E+01    1.88601E+01    1.05414E+01    4.91658E+00    2.14180E+00    7.51910E-01    1.94860E-01    3.61485E-02    3.77796E-03    2.12944E-04    4.41665E-06    3.27971E-08    6.77626E-11    2.71051E-11   -1.35525E-11    1.08420E-10   -9.48677E-11   -5.42101E-11    0.00000E+00    0.00000E+00    4.06576E-11   -6.77626E-11    2.71051E-11   -1.06158E+02   -3.62232E+01   -2.15057E+01   -8.76200E+00   -1.36665E-01    3.94137E+00    5.72867E+00    6.06323E+00    5.70521E+00    5.00622E+00    4.18259E+00    3.26740E+00    2.37752E+00    1.54970E+00    8.76394E-01    4.09860E-01    2.05370E-01    3.89663E-02    6.63472E-03    6.38434E-04    3.06699E-05    2.77556E-08   -2.49800E-07   -7.49401E-07  
  2.7      Z      8.32667E-08    1.38778E-07    0.00000E+00    5.55112E-08   -1.66533E-07   -5.55068E+03   -7.40594E+02   -1.39517E+02   -2.57955E+01   -5.13767E+00   -1.02501E+00   -2.27779E-01   -4.48636E-02   -1.00293E-02   -1.99635E-03   -4.66418E-04   -1.13631E-04   -4.74060E-05   -3.10790E-05   -2.80930E-05    1.09254E+04    5.02929E+03    3.53964E+03    2.12456E+03    1.06349E+03    4.86114E+02    1.75790E+02    4.61761E+01    8.60742E+00    9.00998E-01    5.08074E-02    1.05392E-03    7.82208E-06    1.32679E-08   -2.71051E-11    1.35525E-11    1.35525E-11    2.71051E-11    8.13152E-11    5.42101E-11   -5.42101E-11   -1.35525E-11   -4.06576E-11   -5.42101E-11   -1.62630E+04   -6.60674E+03   -4.29177E+03   -2.10648E+03   -4.66027E+02    4.00846E+02    8.27760E+02    9.45434E+02    9.08122E+02    8.00493E+02    6.68920E+02    5.22782E+02    3.80219E+02    2.47955E+02    1.40226E+02    6.55788E+01    8.10005E+01    6.23472E+00    1.06173E+00    1.02231E-01    4.94826E-03    5.27356E-07    2.77556E-08    0.00000E+00  
  5.2      X     -5.55112E-08    5.55112E-08    1.38778E-07    5.55112E-08    8.32667E-08   -2.51767E+02   -2.37814E+01   -4.12468E+00   -7.33677E-01   -1.29380E-01   -9.57412E-03    1.36238E-02    1.89442E-02    1.99573E-02    2.01909E-02    2.02353E-02    2.02456E-02    2.02475E-02    2.02480E-02    2.02481E-02    5.87683E+02    2.22759E+02    1.44599E+02    7.84295E+01    3.54735E+01    1.51344E+01    5.24889E+00    1.35379E+00    2.50848E-01    2.62137E-02    1.47759E-03    3.06470E-05    2.27357E-07    3.79471E-10   -1.62630E-10   -1.62630E-10   -1.62630E-10    0.00000E+00   -5.42101E-11   -1.62630E-10    0.00000E+00    0.00000E+00    0.00000E+00   -1.62630E-10   -8.77466E+02   -2.81109E+02   -1.60634E+02   -5.95584E+01    6.09959E+00    3.56951E+01    4.79619E+01    4.96788E+01    4.64596E+01    4.07120E+01    3.40124E+01    2.65665E+01    1.93342E+01    1.26002E+01    7.12574E+00    3.33247E+00    1.55098E+00    3.16825E-01    5.39501E-02    5.19371E-03    2.51216E-04   -1.94289E-07   -1.11022E-07   -3.60822E-07  
  5.2      Y      4.92661E-07    4.90927E-07    2.91434E-07    4.71845E-07    1.31839E-07    6.40675E+00    3.07539E-01    5.00514E-02    1.59161E-02    9.99542E-03    8.81051E-03    8.57931E-03    8.52607E-03    8.51586E-03    8.51339E-03    8.51302E-03    8.51283E-03    8.51277E-03    8.51281E-03    8.51278E-03   -1.82131E+01   -5.47296E+00   -3.12746E+00   -1.39690E+00   -4.94676E-01   -1.73046E-01   -5.32299E-02   -1.32890E-02   -2.47786E-03   -2.61801E-04   -1.48379E-05   -3.08171E-07   -2.24633E-09   -1.66018E-10    2.06676E-10    1.28749E-10    4.74338E-11   -8.13152E-11    1.35525E-10    4.06576E-11   -8.47033E-11    2.37169E-11   -1.69407E-11    5.08220E-11    2.72938E+01    6.50662E+00    2.92049E+00    3.12987E-01   -1.03921E+00   -1.46789E+00   -1.55642E+00   -1.49028E+00   -1.36139E+00   -1.18674E+00   -9.91300E-01   -7.73866E-01   -5.63564E-01   -3.67029E-01   -2.07564E-01   -9.70709E-02    4.40602E-05   -9.22893E-03   -1.57197E-03   -1.51931E-04   -7.94503E-06   -2.93168E-07   -4.25007E-07   -5.25621E-07  
  5.2      Z      6.24500E-08    2.15106E-07    6.24500E-08    1.38778E-08   -6.24500E-08   -5.46024E+03   -7.32346E+02   -1.38087E+02   -2.55353E+01   -5.08606E+00   -1.01480E+00   -2.25583E-01   -4.45070E-02   -1.00232E-02   -2.07067E-03   -5.56167E-04   -2.06976E-04   -1.41431E-04   -1.25266E-04   -1.22312E-04    1.07097E+04    4.94951E+03    3.48834E+03    2.09703E+03    1.05116E+03    4.80882E+02    1.73979E+02    4.57087E+01    8.52075E+00    8.91935E-01    5.02964E-02    1.04332E-03    7.74351E-06    1.31324E-08    1.49078E-10    1.89735E-10    6.77626E-11   -2.71051E-11    1.62630E-10    8.13152E-11    0.00000E+00    1.08420E-10   -9.48677E-11    1.35525E-11   -1.59408E+04   -6.50667E+03   -4.23556E+03   -2.08655E+03   -4.69290E+02    3.87303E+02    8.10041E+02    9.27214E+02    8.91118E+02    7.85599E+02    6.56477E+02    5.13063E+02    3.73145E+02    2.43346E+02    1.37619E+02    6.43597E+01    8.08460E+01    6.11882E+00    1.04199E+00    1.00331E-01    4.85645E-03    4.02456E-07   -2.08167E-08    2.08167E-07  
  7.7      X      2.22045E-07    2.22045E-07    3.33067E-07    0.00000E+00    2.77556E-07   -3.78856E+02   -3.60329E+01   -6.27475E+00   -1.12573E+00   -2.07067E-01   -2.48493E-02    1.04408E-02    1.85354E-02    2.00766E-02    2.04321E-02    2.04998E-02    2.05153E-02    2.05182E-02    2.05190E-02    2.05191E-02    8.81968E+02    3.35324E+02    2.17960E+02    1.18436E+02    5.36833E+01    2.29456E+01    7.97006E+00    2.05774E+00    3.81506E-01    3.98791E-02    2.24812E-03    4.66305E-05    3.45969E-07    4.74338E-10   -7.45389E-11   -6.77626E-11   -1.21973E-10    6.09864E-11   -1.49078E-10   -2.16840E-10   -7.45389E-11    1.01644E-10   -1.35525E-11   -3.79471E-10   -1.31682E+03   -4.23480E+02   -2.42557E+02   -9.05041E+01    8.49165E+00    5.32488E+01    7.18797E+01    7.45584E+01    6.97571E+01    6.11336E+01    5.10736E+01    3.98931E+01    2.90325E+01    1.89208E+01    1.07002E+01    5.00414E+00    2.38546E+00    4.75755E-01    8.10138E-02    7.79937E-03    3.77143E-04    4.44089E-07   -3.33067E-07   -9.43690E-07  
  7.7      Y      2.91434E-07    4.85723E-07    3.33067E-07    2.77556E-07    4.16334E-07   -1.41905E+01   -1.70442E+00   -3.04182E-01   -4.88326E-02   -2.95032E-03    6.15068E-03    7.91230E-03    8.31639E-03    8.39336E-03    8.41092E-03    8.41424E-03    8.41502E-03    8.41523E-03    8.41522E-03    8.41520E-03    2.91459E+01    1.27878E+01    8.81135E+00    5.13897E+00    2.49146E+00    1.11113E+00    3.94830E-01    1.02700E-01    1.90551E-02    1.99044E-03    1.12157E-04    2.32594E-06    1.72795E-08    1.21973E-10    4.06576E-11    4.06576E-11   -1.49078E-10   -1.49078E-10    8.13152E-11   -1.35525E-11    1.62630E-10   -1.35525E-11    1.76183E-10    1.35525E-11   -4.34022E+01   -1.66339E+01   -1.04694E+01   -4.81591E+00   -7.36455E-01    1.32010E+00    2.28253E+00    2.51472E+00    2.39210E+00    2.10401E+00    1.75799E+00    1.37366E+00    9.99245E-01    6.51518E-01    3.68451E-01    1.72312E-01    1.59050E-01    1.63819E-02    2.78892E-03    2.67911E-04    1.29480E-05   -6.80012E-07   -5.55112E-07   -6.10623E-07  
  7.7      Z      2.49800E-07   -8.32667E-08    6.38378E-07    5.55112E-08   -8.32667E-08   -5.42674E+03   -7.29785E+02   -1.37662E+02   -2.54588E+01   -5.07094E+00   -1.01184E+00   -2.24973E-01   -4.44375E-02   -1.00566E-02   -2.12754E-03   -6.17783E-04   -2.69444E-04   -2.04024E-04   -1.87905E-04   -1.84989E-04    1.06235E+04    4.92029E+03    3.47027E+03    2.08782E+03    1.04725E+03    4.79286E+02    1.73439E+02    4.55710E+01    8.49529E+00    8.89276E-01    5.01464E-02    1.04021E-03    7.72041E-06    1.31731E-08   -5.42101E-11   -1.62630E-10   -2.71051E-11    1.35525E-10    8.13152E-11    5.42101E-11   -8.13152E-11    1.08420E-10    2.71051E-10   -2.43945E-10   -1.58118E+04   -6.47087E+03   -4.21687E+03   -2.08131E+03   -4.72098E+02    3.81217E+02    8.02775E+02    9.19953E+02    8.84399E+02    7.79725E+02    6.51570E+02    5.09231E+02    3.70356E+02    2.41529E+02    1.36591E+02    6.38791E+01    8.12835E+01    6.07312E+00    1.03421E+00    9.95820E-02    4.82034E-03    2.22045E-07   -1.11022E-07   -2.77556E-08  
  10.2     X      1.66533E-07    0.00000E+00   -1.11022E-07   -4.44089E-07    3.88578E-07   -4.39395E+02   -4.18770E+01   -7.30059E+00   -1.31283E+00   -2.44177E-01   -3.21818E-02    8.87748E-03    1.82958E-02    2.00887E-02    2.05026E-02    2.05812E-02    2.05994E-02    2.06029E-02    2.06038E-02    2.06039E-02    1.02200E+03    3.88952E+02    2.52924E+02    1.37512E+02    6.23687E+01    2.66718E+01    9.26831E+00    2.39360E+00    4.43845E-01    4.63991E-02    2.61575E-03    5.42564E-05    4.02890E-07    6.50521E-10   -1.08420E-10   -1.08420E-10   -4.33681E-10    4.33681E-10    0.00000E+00    0.00000E+00   -2.16840E-10    2.16840E-10    0.00000E+00   -5.42101E-10   -1.52588E+03   -4.91327E+02   -2.81625E+02   -1.05288E+02    9.60016E+00    6.15891E+01    8.32578E+01    8.63979E+01    8.08449E+01    7.08527E+01    5.91935E+01    4.62357E+01    3.36482E+01    2.19290E+01    1.24015E+01    5.79974E+00    2.75366E+00    5.51394E-01    9.38940E-02    9.04010E-03    4.37039E-04   -2.77556E-07   -1.11022E-07   -1.16573E-06  
  10.2     Y      1.11022E-07    3.33067E-07   -3.88578E-07   -3.60822E-07    2.22045E-07   -6.17050E+00   -8.90992E-01   -1.59951E-01   -2.25167E-02    2.22873E-03    7.13229E-03    8.08047E-03    8.29804E-03    8.33898E-03    8.34831E-03    8.35039E-03    8.35086E-03    8.35062E-03    8.35075E-03    8.35074E-03    1.10825E+01    5.65777E+00    4.10666E+00    2.53451E+00    1.28864E+00    5.90214E-01    2.12347E-01    5.53850E-02    1.02672E-02    1.07118E-03    6.03224E-05    1.25071E-06    9.43256E-09    0.00000E+00   -1.89735E-10   -4.06576E-11   -1.21973E-10    2.30393E-10    1.49078E-10    2.43945E-10   -1.76183E-10    6.77626E-11   -1.49078E-10   -1.62630E-10   -1.64469E+01   -7.54814E+00   -5.12751E+00   -2.68919E+00   -7.57285E-01    2.99332E-01    8.30115E-01    9.86054E-01    9.55833E-01    8.44109E-01    7.05370E-01    5.51390E-01    4.00903E-01    2.61525E-01    1.47899E-01    6.91665E-02    5.34324E-02    6.57543E-03    1.11908E-03    1.07803E-04    4.19109E-06   -4.16334E-07   -5.27356E-07   -6.66134E-07  
  10.2     Z     -2.77556E-08    4.99600E-07    1.66533E-07    1.66533E-07   -2.22045E-07   -5.42784E+03   -7.30491E+02   -1.37808E+02   -2.54863E+01   -5.07646E+00   -1.01295E+00   -2.25237E-01   -4.45051E-02   -1.00863E-02   -2.14943E-03   -6.37810E-04   -2.89248E-04   -2.23779E-04   -2.07774E-04   -2.04768E-04    1.06182E+04    4.92166E+03    3.47204E+03    2.08936E+03    1.04821E+03    4.79769E+02    1.73623E+02    4.56201E+01    8.50449E+00    8.90240E-01    5.02008E-02    1.04134E-03    7.72852E-06    1.32544E-08    1.08420E-10    2.16840E-10    2.98156E-10   -2.16840E-10    2.98156E-10   -2.43945E-10    1.62630E-10   -1.62630E-10   -8.13152E-11    2.43945E-10   -1.58037E+04   -6.47364E+03   -4.22020E+03   -2.08420E+03   -4.74045E+02    3.80047E+02    8.02109E+02    9.19529E+02    8.84074E+02    7.79454E+02    6.51344E+02    5.09056E+02    3.70227E+02    2.41445E+02    1.36544E+02    6.38571E+01    8.19214E+01    6.07103E+00    1.03385E+00    9.95474E-02    4.81928E-03    9.71445E-07    3.88578E-07    8.32667E-07  
  12.7     X      2.22045E-07    0.00000E+00    1.11022E-07    0.00000E+00    2.22045E-07   -5.71733E+02   -5.47688E+01   -9.56767E+00   -1.72655E+00   -3.26333E-01   -4.85065E-02    5.30803E-03    1.76523E-02    2.00030E-02    2.05450E-02    2.06481E-02    2.06720E-02    2.06764E-02    2.06775E-02    2.06777E-02    1.32643E+03    5.06266E+02    3.29588E+02    1.79450E+02    8.15114E+01    3.48978E+01    1.21370E+01    3.13602E+00    5.81659E-01    6.08135E-02    3.42851E-03    7.11155E-05    5.28006E-07    5.42101E-10   -1.08420E-10    3.25261E-10    1.08420E-10    0.00000E+00   -1.08420E-10   -1.08420E-10    0.00000E+00   -1.08420E-10   -1.08420E-10    0.00000E+00   -1.98032E+03   -6.39970E+02   -3.67575E+02   -1.38144E+02    1.16214E+01    7.95477E+01    1.07945E+02    1.12140E+02    1.04967E+02    9.19999E+01    7.68611E+01    6.00361E+01    4.36912E+01    2.84744E+01    1.61031E+01    7.53086E+00    3.64770E+00    7.15976E-01    1.21919E-01    1.17374E-02    5.67990E-04   -2.22045E-07   -4.44089E-07   -2.22045E-07  
