Data type: B; UNIT: nT
Number of stations: 121
Stations (m): 0.2 5.2 10.2 15.2 20.2 25.2 30.2 35.2 40.2 45.2 50.2 55.2 60.2 65.2 70.2 75.2 80.2 85.2 90.2 95.2 100.2 105.2 110.2 115.2 120.2 125.2 130.2 135.2 140.2 145.2 150.2 155.2 160.2 165.2 170.2 175.2 180.2 185.2 190.2 195.2 200.2 205.2 210.2 215.2 220.2 225.2 230.2 235.2 240.2 245.2 250.2 255.2 260.2 265.2 270.2 275.2 280.2 285.2 290.2 295.2 300.2 305.2 310.2 315.2 320.2 325.2 330.2 335.2 340.2 345.2 350.2 355.2 360.2 365.2 370.2 375.2 380.2 385.2 390.2 395.2 400.2 405.2 410.2 415.2 420.2 425.2 430.2 435.2 440.2 445.2 450.2 455.2 460.2 465.2 470.2 475.2 480.2 485.2 490.2 495.2 500.2 505.2 510.2 515.2 520.2 525.2 530.2 535.2 540.2 545.2 550.2 555.2 560.2 565.2 570.2 575.2 580.2 585.2 590.2 595.2 600.2
Channel times (ms):
   1     0.0010 
   2     0.0014 
   3     0.0020 
   4     0.0028 
   5     0.0040 
   6     0.0057 
   7     0.0080 
   8     0.0113 
   9     0.0160 
   10    0.0226 
   11    0.0320 
   12    0.0453 
   13    0.0640 
   14    0.0905 
   15    0.1280 
   16    0.1810 
   17    0.2560 
   18    0.3620 
   19    0.5120 
   20    0.7241 
   21    1.0240 
   22    1.4482 
   23    2.0480 
   24    2.8963 
   25    4.0960 
   26    5.7926 
   27    8.1920 
   28    11.5850
   29    16.3840
   30    23.1700
   31    32.7680
   32    46.3410
EM data:
Station Component      CH1            CH2            CH3            CH4            CH5            CH6            CH7            CH8            CH9           CH10           CH11           CH12           CH13           CH14           CH15           CH16           CH17           CH18           CH19           CH20           CH21           CH22           CH23           CH24           CH25           CH26           CH27           CH28           CH29           CH30           CH31           CH32      
  0.2      X     -1.11034E+00   -1.10968E+00   -1.10872E+00   -1.10748E+00   -1.10570E+00   -1.10331E+00   -1.10028E+00   -1.09627E+00   -1.09107E+00   -1.08451E+00   -1.07617E+00   -1.06580E+00   -1.05308E+00   -1.03738E+00   -1.01771E+00   -9.92312E-01   -9.58608E-01   -9.13562E-01   -8.54025E-01   -7.77363E-01   -6.82285E-01   -5.70200E-01   -4.46760E-01   -3.22777E-01   -2.10985E-01   -1.23152E-01   -6.31848E-02   -2.88165E-02   -1.16699E-02   -4.33216E-03   -1.47118E-03   -0.00000E+00  
  0.2      Y      2.52966E-01    2.52872E-01    2.52730E-01    2.52540E-01    2.52254E-01    2.51851E-01    2.51313E-01    2.50558E-01    2.49526E-01    2.48160E-01    2.46360E-01    2.44051E-01    2.41164E-01    2.37578E-01    2.33123E-01    2.27461E-01    2.20031E-01    2.10131E-01    1.97017E-01    1.80043E-01    1.58837E-01    1.33602E-01    1.05488E-01    7.68494E-02    5.06159E-02    2.96521E-02    1.51327E-02    6.75512E-03    2.63419E-03    9.47851E-04    3.31534E-04   -0.00000E+00  
  0.2      Z     -3.95370E+01   -3.95184E+01   -3.94912E+01   -3.94561E+01   -3.94055E+01   -3.93376E+01   -3.92517E+01   -3.91378E+01   -3.89898E+01   -3.88023E+01   -3.85629E+01   -3.82633E+01   -3.78930E+01   -3.74325E+01   -3.68524E+01   -3.61026E+01   -3.51068E+01   -3.37712E+01   -3.19922E+01   -2.96730E+01   -2.67439E+01   -2.31987E+01   -1.91440E+01   -1.48432E+01   -1.06644E+01   -7.02631E+00   -4.19529E+00   -2.27227E+00   -1.10440E+00   -4.73508E-01   -1.65934E-01   -0.00000E+00  
  5.2      X     -3.22455E+00   -3.22270E+00   -3.21999E+00   -3.21648E+00   -3.21143E+00   -3.20466E+00   -3.19608E+00   -3.18472E+00   -3.16996E+00   -3.15129E+00   -3.12749E+00   -3.09778E+00   -3.06117E+00   -3.01580E+00   -2.95882E+00   -2.88535E+00   -2.78805E+00   -2.65819E+00   -2.48659E+00   -2.26552E+00   -1.99110E+00   -1.66716E+00   -1.30969E+00   -9.49556E-01   -6.23471E-01   -3.65820E-01   -1.88718E-01   -8.64170E-02   -3.50343E-02   -1.29648E-02   -4.40077E-03   -0.00000E+00  
  5.2      Y      2.62930E-01    2.62826E-01    2.62669E-01    2.62461E-01    2.62151E-01    2.61715E-01    2.61137E-01    2.60332E-01    2.59237E-01    2.57796E-01    2.55902E-01    2.53479E-01    2.50453E-01    2.46699E-01    2.42034E-01    2.36100E-01    2.28305E-01    2.17911E-01    2.04141E-01    1.86329E-01    1.64103E-01    1.37702E-01    1.08370E-01    7.86105E-02    5.14965E-02    2.99780E-02    1.51906E-02    6.73291E-03    2.60689E-03    9.33284E-04    3.25850E-04   -0.00000E+00  
  5.2      Z     -3.74653E+01   -3.74480E+01   -3.74226E+01   -3.73897E+01   -3.73424E+01   -3.72790E+01   -3.71988E+01   -3.70923E+01   -3.69539E+01   -3.67787E+01   -3.65549E+01   -3.62748E+01   -3.59286E+01   -3.54980E+01   -3.49554E+01   -3.42540E+01   -3.33222E+01   -3.20720E+01   -3.04056E+01   -2.82314E+01   -2.54819E+01   -2.21479E+01   -1.83249E+01   -1.42556E+01   -1.02838E+01   -6.80662E+00   -4.08410E+00   -2.22237E+00   -1.08460E+00   -4.66305E-01   -1.63506E-01   -0.00000E+00  
  10.2     X     -5.20367E+00   -5.20069E+00   -5.19633E+00   -5.19069E+00   -5.18258E+00   -5.17169E+00   -5.15791E+00   -5.13963E+00   -5.11590E+00   -5.08586E+00   -5.04754E+00   -4.99966E+00   -4.94063E+00   -4.86741E+00   -4.77543E+00   -4.65684E+00   -4.49987E+00   -4.29044E+00   -4.01372E+00   -3.65724E+00   -3.21473E+00   -2.69229E+00   -2.11564E+00   -1.53448E+00   -1.00799E+00   -5.91694E-01   -3.05331E-01   -1.39798E-01   -5.66309E-02   -2.09280E-02   -7.10204E-03   -0.00000E+00  
  10.2     Y      3.34525E-01    3.34368E-01    3.34135E-01    3.33829E-01    3.33377E-01    3.32753E-01    3.31938E-01    3.30822E-01    3.29328E-01    3.27384E-01    3.24854E-01    3.21640E-01    3.17643E-01    3.12689E-01    3.06521E-01    2.98650E-01    2.88286E-01    2.74468E-01    2.56197E-01    2.32643E-01    2.03407E-01    1.68955E-01    1.31117E-01    9.33607E-02    5.97176E-02    3.37821E-02    1.65538E-02    7.08344E-03    2.64134E-03    9.18175E-04    3.16600E-04   -0.00000E+00  
  10.2     Z     -3.67239E+01   -3.67070E+01   -3.66822E+01   -3.66503E+01   -3.66043E+01   -3.65425E+01   -3.64644E+01   -3.63608E+01   -3.62261E+01   -3.60555E+01   -3.58377E+01   -3.55650E+01   -3.52280E+01   -3.48087E+01   -3.42804E+01   -3.35973E+01   -3.26898E+01   -3.14719E+01   -2.98481E+01   -2.77285E+01   -2.50462E+01   -2.17905E+01   -1.80523E+01   -1.40657E+01   -1.01656E+01   -6.74177E+00   -4.05330E+00   -2.20949E+00   -1.07987E+00   -4.64686E-01   -1.62976E-01   -0.00000E+00  
  15.2     X     -7.38137E+00   -7.37718E+00   -7.37103E+00   -7.36309E+00   -7.35167E+00   -7.33634E+00   -7.31693E+00   -7.29119E+00   -7.25776E+00   -7.21542E+00   -7.16142E+00   -7.09391E+00   -7.01063E+00   -6.90729E+00   -6.77745E+00   -6.61007E+00   -6.38857E+00   -6.09311E+00   -5.70271E+00   -5.19970E+00   -4.57501E+00   -3.83689E+00   -3.02101E+00   -2.19684E+00   -1.44778E+00   -8.53000E-01   -4.41904E-01   -2.03039E-01   -8.24885E-02   -3.05295E-02   -1.03708E-02   -0.00000E+00  
  15.2     Y     -6.25202E-02   -6.24512E-02   -6.23531E-02   -6.22319E-02   -6.20673E-02   -6.18634E-02   -6.16291E-02   -6.13516E-02   -6.10338E-02   -6.06796E-02   -6.02760E-02   -5.98187E-02   -5.92832E-02   -5.86074E-02   -5.76946E-02   -5.64372E-02   -5.47301E-02   -5.24604E-02   -4.94871E-02   -4.56821E-02   -4.09723E-02   -3.53821E-02   -2.90853E-02   -2.24637E-02   -1.60392E-02   -1.04444E-02   -6.11229E-03   -3.21241E-03   -1.49106E-03   -5.96349E-04   -1.95927E-04   -0.00000E+00  
  15.2     Z     -3.60981E+01   -3.60816E+01   -3.60575E+01   -3.60264E+01   -3.59816E+01   -3.59215E+01   -3.58454E+01   -3.57444E+01   -3.56133E+01   -3.54471E+01   -3.52349E+01   -3.49693E+01   -3.46409E+01   -3.42323E+01   -3.37175E+01   -3.30517E+01   -3.21670E+01   -3.09795E+01   -2.93955E+01   -2.73264E+01   -2.47058E+01   -2.15206E+01   -1.78566E+01   -1.39395E+01   -1.00959E+01   -6.71003E+00   -4.04232E+00   -2.20695E+00   -1.07982E+00   -4.64923E-01   -1.63094E-01   -0.00000E+00  
  20.2     X     -9.52997E+00   -9.52459E+00   -9.51670E+00   -9.50650E+00   -9.49183E+00   -9.47215E+00   -9.44724E+00   -9.41418E+00   -9.37127E+00   -9.31691E+00   -9.24756E+00   -9.16084E+00   -9.05385E+00   -8.92107E+00   -8.75420E+00   -8.53911E+00   -8.25452E+00   -7.87495E+00   -7.37341E+00   -6.72710E+00   -5.92416E+00   -4.97471E+00   -3.92383E+00   -2.86001E+00   -1.89021E+00   -1.11717E+00   -5.80624E-01   -2.67502E-01   -1.08914E-01   -4.03533E-02   -1.37203E-02   -0.00000E+00  
  20.2     Y     -1.79569E-01   -1.79433E-01   -1.79236E-01   -1.78986E-01   -1.78636E-01   -1.78182E-01   -1.77629E-01   -1.76925E-01   -1.76050E-01   -1.74986E-01   -1.73674E-01   -1.72079E-01   -1.70140E-01   -1.67722E-01   -1.64621E-01   -1.60549E-01   -1.55132E-01   -1.47937E-01   -1.38487E-01   -1.26382E-01   -1.11436E-01   -9.38594E-02   -7.44668E-02   -5.48203E-02   -3.67970E-02   -2.22479E-02   -1.19498E-02   -5.75101E-03   -2.45965E-03   -9.36626E-04   -3.09736E-04   -0.00000E+00  
  20.2     Z     -3.48274E+01   -3.48118E+01   -3.47889E+01   -3.47593E+01   -3.47168E+01   -3.46597E+01   -3.45874E+01   -3.44915E+01   -3.43670E+01   -3.42091E+01   -3.40076E+01   -3.37552E+01   -3.34432E+01   -3.30550E+01   -3.25657E+01   -3.19327E+01   -3.10913E+01   -2.99614E+01   -2.84529E+01   -2.64804E+01   -2.39780E+01   -2.09296E+01   -1.74121E+01   -1.36363E+01   -9.91281E+00   -6.61382E+00   -3.99935E+00   -2.19036E+00   -1.07433E+00   -4.63221E-01   -1.62562E-01   -0.00000E+00  
  25.2     X     -1.12599E+01   -1.12535E+01   -1.12442E+01   -1.12322E+01   -1.12148E+01   -1.11916E+01   -1.11621E+01   -1.11230E+01   -1.10723E+01   -1.10081E+01   -1.09261E+01   -1.08236E+01   -1.06971E+01   -1.05401E+01   -1.03428E+01   -1.00886E+01   -9.75217E+00   -9.30358E+00   -8.71095E+00   -7.94738E+00   -6.99890E+00   -5.87746E+00   -4.63617E+00   -3.37939E+00   -2.23338E+00   -1.31964E+00   -6.85413E-01   -3.15445E-01   -1.28252E-01   -4.74551E-02   -1.61326E-02   -0.00000E+00  
  25.2     Y     -2.39666E-01   -2.39480E-01   -2.39210E-01   -2.38866E-01   -2.38380E-01   -2.37741E-01   -2.36953E-01   -2.35936E-01   -2.34652E-01   -2.33069E-01   -2.31095E-01   -2.28674E-01   -2.25721E-01   -2.22051E-01   -2.17385E-01   -2.11304E-01   -2.03250E-01   -1.92581E-01   -1.78625E-01   -1.60866E-01   -1.39172E-01   -1.14094E-01   -8.71488E-02   -6.09319E-02   -3.82095E-02   -2.12435E-02   -1.03338E-02   -4.49716E-03   -1.74527E-03   -6.18057E-04   -1.94154E-04   -0.00000E+00  
  25.2     Z     -3.37886E+01   -3.37737E+01   -3.37518E+01   -3.37235E+01   -3.36829E+01   -3.36283E+01   -3.35593E+01   -3.34677E+01   -3.33487E+01   -3.31979E+01   -3.30054E+01   -3.27643E+01   -3.24661E+01   -3.20951E+01   -3.16273E+01   -3.10220E+01   -3.02171E+01   -2.91355E+01   -2.76905E+01   -2.57986E+01   -2.33945E+01   -2.04593E+01   -1.70622E+01   -1.34012E+01   -9.77412E+00   -6.54343E+00   -3.96958E+00   -2.17978E+00   -1.07127E+00   -4.62411E-01   -1.62333E-01   -0.00000E+00  
  30.2     X     -1.20382E+01   -1.20314E+01   -1.20215E+01   -1.20087E+01   -1.19902E+01   -1.19655E+01   -1.19341E+01   -1.18926E+01   -1.18386E+01   -1.17703E+01   -1.16831E+01   -1.15740E+01   -1.14395E+01   -1.12725E+01   -1.10626E+01   -1.07920E+01   -1.04341E+01   -9.95686E+00   -9.32628E+00   -8.51365E+00   -7.50378E+00   -6.30883E+00   -4.98447E+00   -3.64087E+00   -2.41234E+00   -1.42938E+00   -7.44546E-01   -3.43504E-01   -1.39948E-01   -5.18441E-02   -1.76402E-02   -0.00000E+00  
  30.2     Y     -4.98620E-01   -4.98323E-01   -4.97891E-01   -4.97337E-01   -4.96547E-01   -4.95501E-01   -4.94197E-01   -4.92493E-01   -4.90318E-01   -4.87605E-01   -4.84189E-01   -4.79966E-01   -4.74785E-01   -4.68339E-01   -4.60161E-01   -4.49516E-01   -4.35365E-01   -4.16461E-01   -3.91424E-01   -3.59026E-01   -3.18522E-01   -2.70192E-01   -2.16015E-01   -1.60206E-01   -1.08194E-01   -6.55909E-02   -3.51106E-02   -1.66891E-02   -7.00964E-03   -2.64403E-03   -8.94494E-04   -0.00000E+00  
  30.2     Z     -3.35677E+01   -3.35531E+01   -3.35317E+01   -3.35040E+01   -3.34642E+01   -3.34107E+01   -3.33431E+01   -3.32533E+01   -3.31367E+01   -3.29890E+01   -3.28003E+01   -3.25640E+01   -3.22718E+01   -3.19081E+01   -3.14494E+01   -3.08558E+01   -3.00659E+01   -2.90040E+01   -2.75840E+01   -2.57226E+01   -2.33535E+01   -2.04547E+01   -1.70900E+01   -1.34512E+01   -9.83167E+00   -6.59434E+00   -4.00590E+00   -2.20098E+00   -1.08164E+00   -4.66699E-01   -1.63857E-01   -0.00000E+00  
  35.2     X     -1.34606E+01   -1.34531E+01   -1.34422E+01   -1.34280E+01   -1.34077E+01   -1.33805E+01   -1.33460E+01   -1.33002E+01   -1.32407E+01   -1.31655E+01   -1.30694E+01   -1.29493E+01   -1.28011E+01   -1.26170E+01   -1.23857E+01   -1.20874E+01   -1.16928E+01   -1.11663E+01   -1.04701E+01   -9.57206E+00   -8.45420E+00   -7.12823E+00   -5.65348E+00   -4.14982E+00   -2.76601E+00   -1.64990E+00   -8.65487E-01   -4.01874E-01   -1.64668E-01   -6.12220E-02   -2.08730E-02   -0.00000E+00  
  35.2     Y     -6.35449E-02   -6.34726E-02   -6.33690E-02   -6.32390E-02   -6.30593E-02   -6.28307E-02   -6.25595E-02   -6.22261E-02   -6.18291E-02   -6.13708E-02   -6.08377E-02   -6.02300E-02   -5.95269E-02   -5.86603E-02   -5.75142E-02   -5.59509E-02   -5.38397E-02   -5.10550E-02   -4.74490E-02   -4.29049E-02   -3.74044E-02   -3.10888E-02   -2.43060E-02   -1.76351E-02   -1.16927E-02   -7.03219E-03   -3.80632E-03   -1.88083E-03   -8.32741E-04   -3.19248E-04   -9.82341E-05   -0.00000E+00  
  35.2     Z     -3.00801E+01   -3.00676E+01   -3.00492E+01   -3.00255E+01   -2.99913E+01   -2.99454E+01   -2.98874E+01   -2.98104E+01   -2.97104E+01   -2.95836E+01   -2.94217E+01   -2.92188E+01   -2.89679E+01   -2.86554E+01   -2.82610E+01   -2.77502E+01   -2.70698E+01   -2.61534E+01   -2.49251E+01   -2.33097E+01   -2.12443E+01   -1.87016E+01   -1.57269E+01   -1.24768E+01   -9.20433E+00   -6.23589E+00   -3.82737E+00   -2.12258E+00   -1.05134E+00   -4.55922E-01   -1.60242E-01   -0.00000E+00  
  40.2     X     -1.45014E+01   -1.44935E+01   -1.44819E+01   -1.44669E+01   -1.44452E+01   -1.44162E+01   -1.43795E+01   -1.43309E+01   -1.42676E+01   -1.41876E+01   -1.40855E+01   -1.39577E+01   -1.38001E+01   -1.36043E+01   -1.33582E+01   -1.30409E+01   -1.26209E+01   -1.20603E+01   -1.13186E+01   -1.03609E+01   -9.16717E+00   -7.74812E+00   -6.16495E+00   -4.54368E+00   -3.04326E+00   -1.82483E+00   -9.62351E-01   -4.48883E-01   -1.84624E-01   -6.87909E-02   -2.34893E-02   -0.00000E+00  
  40.2     Y      1.75869E-01    1.75809E-01    1.75719E-01    1.75599E-01    1.75420E-01    1.75167E-01    1.74828E-01    1.74352E-01    1.73697E-01    1.72818E-01    1.71638E-01    1.70090E-01    1.68118E-01    1.65649E-01    1.62600E-01    1.58770E-01    1.53770E-01    1.47090E-01    1.38204E-01    1.26658E-01    1.12168E-01    9.48230E-02    7.53505E-02    5.53209E-02    3.67651E-02    2.17453E-02    1.12098E-02    5.05361E-03    1.99344E-03    7.27405E-04    2.58164E-04   -0.00000E+00  
  40.2     Z     -2.79157E+01   -2.79045E+01   -2.78882E+01   -2.78670E+01   -2.78367E+01   -2.77959E+01   -2.77443E+01   -2.76758E+01   -2.75868E+01   -2.74740E+01   -2.73300E+01   -2.71494E+01   -2.69260E+01   -2.66476E+01   -2.62961E+01   -2.58403E+01   -2.52324E+01   -2.44121E+01   -2.33098E+01   -2.18550E+01   -1.99864E+01   -1.76718E+01   -1.49429E+01   -1.19325E+01   -8.86801E+00   -6.05408E+00   -3.74342E+00   -2.08902E+00   -1.03978E+00   -4.52214E-01   -1.59048E-01   -0.00000E+00  
  45.2     X     -1.56733E+01   -1.56648E+01   -1.56524E+01   -1.56363E+01   -1.56132E+01   -1.55822E+01   -1.55429E+01   -1.54908E+01   -1.54232E+01   -1.53376E+01   -1.52283E+01   -1.50916E+01   -1.49229E+01   -1.47134E+01   -1.44500E+01   -1.41103E+01   -1.36605E+01   -1.30599E+01   -1.22649E+01   -1.12375E+01   -9.95517E+00   -8.42830E+00   -6.72084E+00   -4.96675E+00   -3.33709E+00   -2.00760E+00   -1.06213E+00   -4.96693E-01   -2.04685E-01   -7.63390E-02   -2.60910E-02   -0.00000E+00  
  45.2     Y      2.07015E-01    2.06950E-01    2.06854E-01    2.06725E-01    2.06534E-01    2.06266E-01    2.05909E-01    2.05409E-01    2.04720E-01    2.03797E-01    2.02552E-01    2.00915E-01    1.98819E-01    1.96184E-01    1.92915E-01    1.88801E-01    1.83426E-01    1.76231E-01    1.66612E-01    1.54017E-01    1.38029E-01    1.18572E-01    9.62242E-02    7.25180E-02    4.97087E-02    3.04085E-02    1.62430E-02    7.57563E-03    3.08610E-03    1.14504E-03    4.04094E-04   -0.00000E+00  
  45.2     Z     -2.61765E+01   -2.61665E+01   -2.61518E+01   -2.61328E+01   -2.61055E+01   -2.60689E+01   -2.60225E+01   -2.59609E+01   -2.58809E+01   -2.57795E+01   -2.56499E+01   -2.54874E+01   -2.52863E+01   -2.50356E+01   -2.47187E+01   -2.43075E+01   -2.37582E+01   -2.30157E+01   -2.20152E+01   -2.06901E+01   -1.89800E+01   -1.68489E+01   -1.43175E+01   -1.14996E+01   -8.60178E+00   -5.91143E+00   -3.67856E+00   -2.06374E+00   -1.03140E+00   -4.49631E-01   -1.58227E-01   -0.00000E+00  
  50.2     X     -1.65243E+01   -1.65156E+01   -1.65029E+01   -1.64864E+01   -1.64627E+01   -1.64309E+01   -1.63906E+01   -1.63372E+01   -1.62678E+01   -1.61800E+01   -1.60679E+01   -1.59278E+01   -1.57547E+01   -1.55398E+01   -1.52694E+01   -1.49204E+01   -1.44580E+01   -1.38397E+01   -1.30199E+01   -1.19578E+01   -1.06278E+01   -9.03685E+00   -7.24671E+00   -5.39273E+00   -3.65318E+00   -2.21739E+00   -1.18385E+00   -5.58033E-01   -2.31525E-01   -8.67018E-02   -2.97035E-02   -0.00000E+00  
  50.2     Y     -1.12941E-02   -1.12514E-02   -1.11907E-02   -1.11155E-02   -1.10136E-02   -1.08884E-02   -1.07475E-02   -1.05885E-02   -1.04241E-02   -1.02739E-02   -1.01568E-02   -1.01038E-02   -1.01271E-02   -1.02003E-02   -1.02438E-02   -1.01720E-02   -9.95516E-03   -9.61611E-03   -9.16337E-03   -8.57899E-03   -7.84411E-03   -6.94926E-03   -5.90210E-03   -4.74117E-03   -3.54166E-03   -2.42400E-03   -1.50110E-03   -8.37576E-04   -4.06616E-04   -1.58222E-04   -4.42889E-05   -0.00000E+00  
  50.2     Z     -2.39169E+01   -2.39083E+01   -2.38958E+01   -2.38795E+01   -2.38561E+01   -2.38247E+01   -2.37850E+01   -2.37323E+01   -2.36638E+01   -2.35769E+01   -2.34659E+01   -2.33266E+01   -2.31540E+01   -2.29387E+01   -2.26663E+01   -2.23122E+01   -2.18382E+01   -2.11954E+01   -2.03257E+01   -1.91675E+01   -1.76617E+01   -1.57679E+01   -1.34929E+01   -1.09262E+01   -8.24731E+00   -5.72052E+00   -3.59142E+00   -2.02973E+00   -1.02014E+00   -4.46183E-01   -1.57125E-01   -0.00000E+00  
  55.2     X     -1.70314E+01   -1.70226E+01   -1.70096E+01   -1.69928E+01   -1.69687E+01   -1.69364E+01   -1.68954E+01   -1.68411E+01   -1.67706E+01   -1.66813E+01   -1.65674E+01   -1.64249E+01   -1.62490E+01   -1.60305E+01   -1.57555E+01   -1.54004E+01   -1.49297E+01   -1.43000E+01   -1.34641E+01   -1.23798E+01   -1.10197E+01   -9.38884E+00   -7.54826E+00   -5.63462E+00   -3.83081E+00   -2.33406E+00   -1.25084E+00   -5.91479E-01   -2.46030E-01   -9.22658E-02   -3.16402E-02   -0.00000E+00  
  55.2     Y     -1.50736E-01   -1.50625E-01   -1.50463E-01   -1.50257E-01   -1.49968E-01   -1.49590E-01   -1.49131E-01   -1.48549E-01   -1.47839E-01   -1.47000E-01   -1.46009E-01   -1.44871E-01   -1.43562E-01   -1.41986E-01   -1.39955E-01   -1.37190E-01   -1.33374E-01   -1.28181E-01   -1.21234E-01   -1.12139E-01   -1.00591E-01   -8.65201E-02   -7.03160E-02   -5.30546E-02   -3.63676E-02   -2.22041E-02   -1.18231E-02   -5.50390E-03   -2.23446E-03   -8.06026E-04   -2.66180E-04   -0.00000E+00  
  55.2     Z     -2.22054E+01   -2.21980E+01   -2.21870E+01   -2.21728E+01   -2.21524E+01   -2.21250E+01   -2.20904E+01   -2.20444E+01   -2.19846E+01   -2.19088E+01   -2.18118E+01   -2.16901E+01   -2.15393E+01   -2.13509E+01   -2.11122E+01   -2.08014E+01   -2.03845E+01   -1.98174E+01   -1.90470E+01   -1.80153E+01   -1.66647E+01   -1.49511E+01   -1.28708E+01   -1.04948E+01   -7.98209E+00   -5.57921E+00   -3.52818E+00   -2.00587E+00   -1.01268E+00   -4.44049E-01   -1.56458E-01   -0.00000E+00  
