Data type: dB/dt; UNIT: nT/s
Number of stations: 201
Stations (m): 200.5 201.5 202.5 203.5 204.5 205.5 206.5 207.5 208.5 209.5 210.5 211.5 212.5 213.5 214.5 215.5 216.5 217.5 218.5 219.5 220.5 221.5 222.5 223.5 224.5 225.5 226.5 227.5 228.5 229.5 230.5 231.5 232.5 233.5 234.5 235.5 236.5 237.5 238.5 239.5 240.5 241.5 242.5 243.5 244.5 245.5 246.5 247.5 248.5 249.5 250.5 251.5 252.5 253.5 254.5 255.5 256.5 257.5 258.5 259.5 260.5 261.5 262.5 263.5 264.5 265.5 266.5 267.5 268.5 269.5 270.5 271.5 272.5 273.5 274.5 275.5 276.5 277.5 278.5 279.5 280.5 281.5 282.5 283.5 284.5 285.5 286.5 287.5 288.5 289.5 290.5 291.5 292.5 293.5 294.5 295.5 296.5 297.5 298.5 299.5 300.5 301.5 302.5 303.5 304.5 305.5 306.5 307.5 308.5 309.5 310.5 311.5 312.5 313.5 314.5 315.5 316.5 317.5 318.5 319.5 320.5 321.5 322.5 323.5 324.5 325.5 326.5 327.5 328.5 329.5 330.5 331.5 332.5 333.5 334.5 335.5 336.5 337.5 338.5 339.5 340.5 341.5 342.5 343.5 344.5 345.5 346.5 347.5 348.5 349.5 350.5 351.5 352.5 353.5 354.5 355.5 356.5 357.5 358.5 359.5 360.5 361.5 362.5 363.5 364.5 365.5 366.5 367.5 368.5 369.5 370.5 371.5 372.5 373.5 374.5 375.5 376.5 377.5 378.5 379.5 380.5 381.5 382.5 383.5 384.5 385.5 386.5 387.5 388.5 389.5 390.5 391.5 392.5 393.5 394.5 395.5 396.5 397.5 398.5 399.5 400.5
Channel times (ms):
   1    -1.9500 
   2    -1.8500 
   3    -1.7500 
   4    -1.6500 
   5    -1.5500 
   6    -1.4495 
   7    -1.3500 
   8    -1.2500 
   9    -1.1500 
   10   -1.0500 
   11   -0.9500 
   12   -0.8500 
   13   -0.7500 
   14   -0.6500 
   15   -0.5500 
   16   -0.4500 
   17   -0.3500 
   18   -0.2500 
   19   -0.1500 
   20   -0.0500 
   21    0.0255 
   22    0.0550 
   23    0.0700 
   24    0.0950 
   25    0.1300 
   26    0.1750 
   27    0.2350 
   28    0.3150 
   29    0.4200 
   30    0.5600 
   31    0.7450 
   32    0.9900 
   33    1.3150 
   34    1.7450 
   35    2.3150 
   36    3.0750 
   37    4.0850 
   38    5.4250 
   39    7.2050 
   40    9.5700 
   41    12.6600
   42    22.7300
   43    39.3950
   44    48.1150
   45    48.5255
   46    48.5550
   47    48.5700
   48    48.5950
   49    48.6300
   50    48.6750
   51    48.7350
   52    48.8150
   53    48.9200
   54    49.0600
   55    49.2450
   56    49.4900
   57    49.8150
   58    50.2450
   59    50.8150
   60    51.5750
   61    52.5850
   62    53.9250
   63    55.7050
   64    58.0700
   65    61.1600
   66    71.2300
   67    87.8950
   68    97.1150
EM data:
Station Component      CH1            CH2            CH3            CH4            CH5            CH6            CH7            CH8            CH9           CH10           CH11           CH12           CH13           CH14           CH15           CH16           CH17           CH18           CH19           CH20           CH21           CH22           CH23           CH24           CH25           CH26           CH27           CH28           CH29           CH30           CH31           CH32           CH33           CH34           CH35           CH36           CH37           CH38           CH39           CH40           CH41           CH42           CH43           CH44           CH45           CH46           CH47           CH48           CH49           CH50           CH51           CH52           CH53           CH54           CH55           CH56           CH57           CH58           CH59           CH60           CH61           CH62           CH63           CH64           CH65           CH66           CH67           CH68      
 201.5     X     -2.90566E-08   -3.81639E-08   -3.85976E-08   -3.16587E-08   -2.73219E-08    2.55379E+03    2.54305E+03    2.53623E+03    2.53115E+03    2.52758E+03    2.52491E+03    2.52296E+03    2.52135E+03    2.52022E+03    2.51927E+03    2.51860E+03    2.51804E+03    2.51764E+03    2.51729E+03    2.51706E+03   -4.08075E+01   -3.63545E+01   -3.43962E+01   -3.16126E+01   -2.80535E+01   -2.44357E+01   -2.04260E+01   -1.61650E+01   -1.21336E+01   -8.32486E+00   -5.12877E+00   -2.68622E+00   -1.17393E+00   -3.87578E-01   -8.85152E-02   -1.27466E-02   -1.05418E-03   -3.73269E-05   -4.89416E-07   -1.63477E-09   -2.03288E-11   -3.38813E-11   -2.62580E-11   -3.21873E-11    3.74390E+03    3.62633E+03    3.56939E+03    3.48232E+03    3.35386E+03    3.20410E+03    3.01158E+03    2.77105E+03    2.49149E+03    2.16058E+03    1.79666E+03    1.39875E+03    1.01682E+03    6.60492E+02    3.73195E+02    1.74457E+02    6.36519E+01    1.65845E+01    2.80952E+00    2.67692E-01    1.26867E-02    5.47305E-07    7.80626E-09    2.94903E-08  
 201.5     Y     -2.16840E-10    2.16840E-09   -7.37257E-09   -1.12757E-08   -1.77809E-08   -1.12880E+02   -1.16711E+02   -1.19131E+02   -1.20924E+02   -1.22178E+02   -1.23115E+02   -1.23795E+02   -1.24356E+02   -1.24752E+02   -1.25082E+02   -1.25315E+02   -1.25510E+02   -1.25646E+02   -1.25767E+02   -1.25846E+02   -1.44175E+01   -1.28326E+01   -1.21333E+01   -1.11382E+01   -9.86745E+00   -8.57954E+00   -7.15719E+00   -5.65136E+00   -4.23177E+00   -2.89524E+00   -1.77774E+00   -9.27101E-01   -4.02947E-01   -1.32056E-01   -2.98564E-02   -4.24223E-03   -3.44675E-04   -1.19087E-05   -1.51110E-07   -4.73280E-10   -2.32934E-11   -3.45166E-11   -1.39760E-11   -2.26581E-11   -1.63113E+02   -1.60752E+02   -1.59413E+02   -1.57201E+02   -1.53541E+02   -1.48849E+02   -1.42284E+02   -1.33409E+02   -1.22288E+02   -1.08213E+02   -9.17463E+01   -7.27399E+01   -5.36480E+01   -3.52294E+01   -2.00359E+01   -9.39503E+00   -2.94546E+00   -8.94253E-01   -1.51557E-01   -1.44576E-02   -6.86671E-04   -3.70797E-08   -1.36609E-08    1.95156E-09  
 201.5     Z     -6.07153E-08   -6.93889E-08   -7.97973E-08   -4.33681E-08   -2.08167E-08   -1.23761E+03   -1.19817E+03   -1.17306E+03   -1.15422E+03   -1.14094E+03   -1.13096E+03   -1.12368E+03   -1.11766E+03   -1.11340E+03   -1.10985E+03   -1.10733E+03   -1.10523E+03   -1.10375E+03   -1.10244E+03   -1.10157E+03    1.52137E+02    1.34649E+02    1.27367E+02    1.17165E+02    1.04176E+02    9.09314E+01    7.61729E+01    6.03998E+01    4.54045E+01    3.11839E+01    1.92193E+01    1.00634E+01    4.39353E+00    1.44801E+00    3.29833E-01    4.73300E-02    3.89637E-03    1.37113E-04    1.78302E-06    5.46421E-09   -2.54957E-10   -2.19382E-10   -2.49028E-10   -2.82909E-10   -1.83492E+03   -1.75349E+03   -1.71640E+03   -1.66124E+03   -1.58308E+03   -1.49519E+03   -1.38628E+03   -1.25541E+03   -1.10966E+03   -9.44464E+02   -7.70809E+02   -5.89183E+02   -4.21876E+02   -2.70836E+02   -1.51930E+02   -7.07776E+01   -4.35687E+01   -6.71870E+00   -1.13765E+00   -1.08253E-01   -5.11800E-03   -1.32706E-07    4.33681E-08    5.37764E-08  
 202.5     X     -1.19804E-08   -1.27394E-08   -9.32414E-09   -1.33357E-08   -2.13588E-08    1.94795E+02    1.84281E+02    1.77596E+02    1.72620E+02    1.69128E+02    1.66512E+02    1.64608E+02    1.63033E+02    1.61920E+02    1.60993E+02    1.60335E+02    1.59785E+02    1.59399E+02    1.59056E+02    1.58831E+02   -3.99587E+01   -3.56041E+01   -3.36865E+01   -3.09596E+01   -2.74727E+01   -2.39285E+01   -2.00010E+01   -1.58278E+01   -1.18800E+01   -8.15059E+00   -5.02130E+00   -2.62991E+00   -1.14932E+00   -3.79458E-01   -8.66626E-02   -1.24801E-02   -1.03218E-03   -3.65499E-05   -4.79220E-07   -1.56206E-09    9.71441E-12    1.10908E-11    7.43801E-12    1.17526E-11    2.90921E+02    2.75560E+02    2.68567E+02    2.58242E+02    2.43899E+02    2.28120E+02    2.09025E+02    1.86674E+02    1.62512E+02    1.35976E+02    1.09035E+02    8.18666E+01    5.77342E+01    3.66160E+01    2.03838E+01    9.46061E+00    4.20291E+00    8.96653E-01    1.51747E-01    1.44189E-02    6.79911E-04    3.18213E-08   -6.50521E-09    6.01732E-09  
 202.5     Y      8.02310E-09   -8.23994E-09    1.95156E-09    5.96311E-09   -8.89046E-09    6.29065E+02    6.25196E+02    6.22752E+02    6.20943E+02    6.19679E+02    6.18734E+02    6.18048E+02    6.17482E+02    6.17083E+02    6.16751E+02    6.16516E+02    6.16320E+02    6.16182E+02    6.16060E+02    6.15980E+02   -1.45500E+01   -1.29503E+01   -1.22437E+01   -1.12383E+01   -9.95465E+00   -8.65404E+00   -7.21820E+00   -5.69865E+00   -4.26660E+00   -2.91873E+00   -1.79198E+00   -9.34441E-01   -4.06104E-01   -1.33079E-01   -3.00845E-02   -4.27406E-03   -3.47200E-04   -1.19930E-05   -1.52161E-07   -4.97579E-10   -5.41042E-11   -2.95932E-11   -3.64224E-11   -3.95459E-11    9.22890E+02    8.93131E+02    8.78770E+02    8.56853E+02    8.24638E+02    7.87204E+02    7.39238E+02    6.79505E+02    6.10312E+02    5.28664E+02    4.39143E+02    3.41536E+02    2.48077E+02    1.61043E+02    9.09600E+01    4.25139E+01    1.55931E+01    4.04126E+00    6.84597E-01    6.52241E-02    3.09078E-03    1.21105E-07    7.91468E-09   -1.45283E-08  
 202.5     Z     -3.16587E-08   -1.21431E-08   -1.74557E-08   -2.09251E-08   -2.93819E-08    9.02031E+02    9.42206E+02    9.67777E+02    9.86963E+02    1.00049E+03    1.01066E+03    1.01807E+03    1.02420E+03    1.02854E+03    1.03216E+03    1.03472E+03    1.03686E+03    1.03837E+03    1.03971E+03    1.04058E+03    1.54949E+02    1.37135E+02    1.29718E+02    1.19327E+02    1.06098E+02    9.26089E+01    7.75778E+01    6.15136E+01    4.62417E+01    3.17590E+01    1.95738E+01    1.02490E+01    4.47463E+00    1.47476E+00    3.35933E-01    4.82067E-02    3.96868E-03    1.39664E-04    1.81641E-06    5.65527E-09   -1.99635E-10   -1.73748E-10   -1.87406E-10   -1.94394E-10    1.29644E+03    1.28583E+03    1.27787E+03    1.26377E+03    1.23886E+03    1.20564E+03    1.15767E+03    1.09104E+03    1.00541E+03    8.94666E+02    7.62599E+02    6.07655E+02    4.49952E+02    2.96362E+02    1.68858E+02    7.92493E+01    1.07933E+01    7.54611E+00    1.27905E+00    1.22051E-01    5.80027E-03    2.70183E-07    1.84314E-08    2.08167E-08  
 203.5     X      8.67362E-10   -4.33681E-09   -1.04083E-08   -3.90313E-09   -2.60209E-09   -4.26308E+03   -4.27410E+03   -4.28111E+03   -4.28632E+03   -4.28998E+03   -4.29272E+03   -4.29472E+03   -4.29637E+03   -4.29754E+03   -4.29851E+03   -4.29920E+03   -4.29977E+03   -4.30018E+03   -4.30054E+03   -4.30077E+03   -4.18927E+01   -3.73156E+01   -3.53037E+01   -3.24445E+01   -2.87895E+01   -2.50750E+01   -2.09589E+01   -1.65854E+01   -1.24484E+01   -8.54034E+00   -5.26124E+00   -2.75547E+00   -1.20413E+00   -3.97531E-01   -9.07825E-02   -1.30720E-02   -1.08099E-03   -3.82711E-05   -5.01715E-07   -1.69385E-09   -3.55754E-11   -2.18111E-11   -5.33631E-11   -4.02341E-11   -6.23376E+03   -6.05663E+03   -5.96949E+03   -5.83513E+03   -5.63426E+03   -5.39727E+03   -5.08904E+03   -4.69947E+03   -4.24127E+03   -3.69275E+03   -3.08281E+03   -2.40907E+03   -1.75659E+03   -1.14366E+03   -6.47108E+02   -3.02706E+02   -1.08922E+02   -2.87844E+01   -4.87671E+00   -4.64773E-01   -2.20373E-02   -9.12898E-07   -2.03830E-08    1.21431E-08  
 203.5     Y      8.89046E-09   -1.62630E-09    5.20417E-09    1.26852E-08    4.44523E-09   -1.64544E+02   -1.68509E+02   -1.71013E+02   -1.72865E+02   -1.74160E+02   -1.75127E+02   -1.75829E+02   -1.76409E+02   -1.76818E+02   -1.77158E+02   -1.77398E+02   -1.77599E+02   -1.77740E+02   -1.77865E+02   -1.77947E+02   -1.49045E+01   -1.32644E+01   -1.25401E+01   -1.15096E+01   -1.01940E+01   -8.86144E+00   -7.39061E+00   -5.83437E+00   -4.36800E+00   -2.98801E+00   -1.83453E+00   -9.56663E-01   -4.15793E-01   -1.36270E-01   -3.08116E-02   -4.37845E-03   -3.55800E-04   -1.22960E-05   -1.56105E-07   -5.09067E-10   -1.65171E-11   -1.65171E-11   -2.39287E-11   -2.30816E-11   -2.38659E+02   -2.34152E+02   -2.31757E+02   -2.27918E+02   -2.21824E+02   -2.14260E+02   -2.03957E+02   -1.90356E+02   -1.73679E+02   -1.52951E+02   -1.29090E+02   -1.01918E+02   -7.49207E+01   -4.90780E+01   -2.78713E+01   -1.30602E+01   -4.50802E+00   -1.24277E+00   -2.10603E-01   -2.00849E-02   -9.53505E-04   -6.15827E-08   -1.12757E-08   -8.34836E-09  
 203.5     Z     -6.07153E-09   -1.17094E-08   -1.34441E-08   -9.54098E-09    6.28837E-09   -2.11616E+02   -1.70353E+02   -1.44092E+02   -1.24391E+02   -1.10500E+02   -1.00063E+02   -9.24547E+01   -8.61562E+01   -8.17000E+01   -7.79885E+01   -7.53534E+01   -7.31537E+01   -7.16054E+01   -7.02357E+01   -6.93349E+01    1.59122E+02    1.40826E+02    1.33208E+02    1.22535E+02    1.08947E+02    9.50936E+01    7.96574E+01    6.31612E+01    4.74795E+01    3.26087E+01    2.00974E+01    1.05232E+01    4.59441E+00    1.51427E+00    3.44943E-01    4.95018E-02    4.07553E-03    1.43435E-04    1.86564E-06    5.82970E-09   -1.91853E-10   -1.78724E-10   -1.92700E-10   -1.88888E-10   -3.34249E+02   -2.95914E+02   -2.80025E+02   -2.57520E+02   -2.28098E+02   -1.97630E+02   -1.63280E+02   -1.26505E+02   -9.12716E+01   -5.81938E+01   -3.12578E+01   -1.15034E+01   -8.03125E-01    3.24004E+00    3.12384E+00    1.74840E+00   -1.68650E+01    1.77590E-01    3.07239E-02    3.09536E-03    1.61264E-04    7.80626E-09   -1.21431E-08   -1.99493E-08  
 204.5     X      2.38524E-08    1.47451E-08    1.73472E-09    1.60462E-08    2.12504E-08    2.64033E+03    2.62899E+03    2.62179E+03    2.61643E+03    2.61266E+03    2.60985E+03    2.60780E+03    2.60610E+03    2.60490E+03    2.60391E+03    2.60320E+03    2.60261E+03    2.60219E+03    2.60182E+03    2.60158E+03   -4.30688E+01   -3.83590E+01   -3.62890E+01   -3.33476E+01   -2.95884E+01   -2.57688E+01   -2.15370E+01   -1.70418E+01   -1.27902E+01   -8.77460E+00   -5.40553E+00   -2.83111E+00   -1.23726E+00   -4.08504E-01   -9.33012E-02   -1.34372E-02   -1.11146E-03   -3.93628E-05   -5.16197E-07   -1.68729E-09   -1.18585E-11    2.96462E-11   -1.01644E-11    1.69407E-12    3.87091E+03    3.74920E+03    3.69026E+03    3.60014E+03    3.46722E+03    3.31228E+03    3.11313E+03    2.86435E+03    2.57526E+03    2.23311E+03    1.85688E+03    1.44557E+03    1.05082E+03    6.82555E+02    3.85654E+02    1.80280E+02    6.55800E+01    1.71380E+01    2.90327E+00    2.76624E-01    1.31100E-02    5.46438E-07   -7.37257E-09   -8.67362E-09  
 204.5     Y      4.30157E-08    3.36374E-08    4.74881E-08    3.27158E-08    4.15520E-08    1.21762E+03    1.21415E+03    1.21197E+03    1.21036E+03    1.20923E+03    1.20839E+03    1.20778E+03    1.20728E+03    1.20693E+03    1.20663E+03    1.20643E+03    1.20625E+03    1.20613E+03    1.20602E+03    1.20595E+03   -1.29619E+01   -1.15472E+01   -1.09152E+01   -1.00133E+01   -8.86170E+00   -7.69672E+00   -6.41338E+00   -5.05829E+00   -3.78378E+00   -2.58624E+00   -1.58660E+00   -8.26683E-01   -3.58968E-01   -1.17510E-01   -2.65291E-02   -3.76221E-03   -3.04887E-04   -1.04956E-05   -1.32577E-07   -4.63327E-10   -8.18446E-11   -8.39621E-11   -7.05684E-11   -9.34383E-11    1.78411E+03    1.72918E+03    1.70249E+03    1.66159E+03    1.60112E+03    1.53046E+03    1.43944E+03    1.32547E+03    1.19270E+03    1.03518E+03    8.61551E+02    6.71298E+02    4.88330E+02    3.17368E+02    1.79380E+02    8.38676E+01    3.06763E+01    7.97331E+00    1.35076E+00    1.28708E-01    6.10044E-03    2.01147E-07   -3.41253E-08   -4.47233E-08  
 204.5     Z      8.99888E-09    5.96311E-09    2.16840E-10   -1.11673E-08   -7.58942E-09   -4.94991E+03   -4.90760E+03   -4.88067E+03   -4.86046E+03   -4.84622E+03   -4.83551E+03   -4.82771E+03   -4.82125E+03   -4.81668E+03   -4.81287E+03   -4.81017E+03   -4.80791E+03   -4.80633E+03   -4.80492E+03   -4.80400E+03    1.63192E+02    1.44424E+02    1.36611E+02    1.25667E+02    1.11733E+02    9.75268E+01    8.16969E+01    6.47793E+01    4.86966E+01    3.34451E+01    2.06132E+01    1.07935E+01    4.71251E+00    1.55324E+00    3.53834E-01    5.07801E-02    4.18105E-03    1.47162E-04    1.91433E-06    5.96163E-09   -2.00747E-10   -1.80100E-10   -1.72054E-10   -1.72477E-10   -7.27031E+03   -7.02625E+03   -6.90987E+03   -6.73297E+03   -6.47406E+03   -6.17420E+03   -5.79122E+03   -5.31594E+03   -4.76754E+03   -4.12301E+03   -3.41926E+03   -2.65503E+03   -1.92597E+03   -1.24901E+03   -7.05019E+02   -3.29419E+02   -1.35888E+02   -3.13096E+01   -5.30370E+00   -5.05248E-01   -2.39373E-02   -9.67108E-07   -9.32414E-09   -2.30935E-08  
 205.5     X     -1.24006E-09   -9.05309E-09    3.41524E-09    2.64274E-09   -4.29615E-09    2.09895E+03    2.08729E+03    2.07989E+03    2.07439E+03    2.07053E+03    2.06764E+03    2.06553E+03    2.06379E+03    2.06256E+03    2.06154E+03    2.06081E+03    2.06020E+03    2.05977E+03    2.05940E+03    2.05915E+03   -4.42482E+01   -3.94032E+01   -3.72746E+01   -3.42506E+01   -3.03867E+01   -2.64616E+01   -2.21141E+01   -1.74969E+01   -1.31308E+01   -9.00760E+00   -5.54876E+00   -2.90599E+00   -1.26993E+00   -4.19273E-01   -9.57562E-02   -1.37900E-02   -1.14055E-03   -4.03894E-05   -5.29596E-07   -1.72946E-09   -9.06921E-12    2.92160E-12    1.03894E-11    2.65690E-12    3.07868E+03    2.98017E+03    2.93259E+03    2.85995E+03    2.75305E+03    2.62869E+03    2.46918E+03    2.27032E+03    2.03974E+03    1.76740E+03    1.46854E+03    1.14243E+03    8.29981E+02    5.38870E+02    3.04388E+02    1.42272E+02    5.15593E+01    1.35241E+01    2.29102E+00    2.18278E-01    1.03439E-02    4.27040E-07    1.13841E-09    2.24972E-08  
 205.5     Y      2.92735E-09    3.11166E-08    2.30935E-08    2.40693E-08    3.06829E-08    7.63319E+01    7.24878E+01    7.00638E+01    6.82723E+01    6.70211E+01    6.60870E+01    6.54091E+01    6.48498E+01    6.44552E+01    6.41274E+01    6.38951E+01    6.37015E+01    6.35655E+01    6.34454E+01    6.33665E+01   -1.44143E+01   -1.28311E+01   -1.21293E+01   -1.11299E+01   -9.85421E+00   -8.56284E+00   -7.13875E+00   -5.63331E+00   -4.21595E+00   -2.88298E+00   -1.76945E+00   -9.22401E-01   -4.00747E-01   -1.31276E-01   -2.96637E-02   -4.21182E-03   -3.41879E-04   -1.17962E-05   -1.49424E-07   -4.72009E-10   -2.26581E-11   -8.47033E-13   -2.07523E-11   -6.24687E-12    1.13833E+02    1.08011E+02    1.05346E+02    1.01402E+02    9.59111E+01    8.98597E+01    8.25216E+01    7.39062E+01    6.45525E+01    5.42243E+01    4.36671E+01    3.29362E+01    2.33225E+01    1.48424E+01    8.28156E+00    3.84827E+00    1.55846E+00    3.64932E-01    6.17690E-02    5.87151E-03    2.77031E-04   -8.02310E-09   -3.25261E-08   -2.86229E-08  
 205.5     Z     -1.82146E-08   -2.29851E-08   -3.03577E-08   -2.42861E-08   -1.77809E-08   -4.61853E+03   -4.57508E+03   -4.54743E+03   -4.52669E+03   -4.51206E+03   -4.50107E+03   -4.49306E+03   -4.48643E+03   -4.48174E+03   -4.47783E+03   -4.47506E+03   -4.47274E+03   -4.47111E+03   -4.46967E+03   -4.46872E+03    1.67543E+02    1.48271E+02    1.40249E+02    1.29011E+02    1.14705E+02    1.00119E+02    8.38667E+01    6.64988E+01    4.99885E+01    3.43321E+01    2.11598E+01    1.10797E+01    4.83746E+00    1.59443E+00    3.63223E-01    5.21285E-02    4.29217E-03    1.51077E-04    1.96536E-06    6.19054E-09   -1.56701E-10   -1.60089E-10   -1.38913E-10   -1.59666E-10   -6.78594E+03   -6.55541E+03   -6.44572E+03   -6.27916E+03   -6.03574E+03   -5.75419E+03   -5.39504E+03   -4.94993E+03   -4.43706E+03   -3.83513E+03   -3.17881E+03   -2.46705E+03   -1.78885E+03   -1.15970E+03   -6.54482E+02   -3.05776E+02   -1.26761E+02   -2.90614E+01   -4.92279E+00   -4.68944E-01   -2.22159E-02   -8.60857E-07    2.94903E-08    3.03577E-08  
