Data type: dB/dt; UNIT: nT/s
Number of stations: 121
Stations (m): 0.2 5.2 10.2 15.2 20.2 25.2 30.2 35.2 40.2 45.2 50.2 55.2 60.2 65.2 70.2 75.2 80.2 85.2 90.2 95.2 100.2 105.2 110.2 115.2 120.2 125.2 130.2 135.2 140.2 145.2 150.2 155.2 160.2 165.2 170.2 175.2 180.2 185.2 190.2 195.2 200.2 205.2 210.2 215.2 220.2 225.2 230.2 235.2 240.2 245.2 250.2 255.2 260.2 265.2 270.2 275.2 280.2 285.2 290.2 295.2 300.2 305.2 310.2 315.2 320.2 325.2 330.2 335.2 340.2 345.2 350.2 355.2 360.2 365.2 370.2 375.2 380.2 385.2 390.2 395.2 400.2 405.2 410.2 415.2 420.2 425.2 430.2 435.2 440.2 445.2 450.2 455.2 460.2 465.2 470.2 475.2 480.2 485.2 490.2 495.2 500.2 505.2 510.2 515.2 520.2 525.2 530.2 535.2 540.2 545.2 550.2 555.2 560.2 565.2 570.2 575.2 580.2 585.2 590.2 595.2 600.2
Channel times (ms):
   1     0.0010 
   2     0.0014 
   3     0.0020 
   4     0.0028 
   5     0.0040 
   6     0.0057 
   7     0.0080 
   8     0.0113 
   9     0.0160 
   10    0.0226 
   11    0.0320 
   12    0.0453 
   13    0.0640 
   14    0.0905 
   15    0.1280 
   16    0.1810 
   17    0.2560 
   18    0.3620 
   19    0.5120 
   20    0.7241 
   21    1.0240 
   22    1.4482 
   23    2.0480 
   24    2.8963 
   25    4.0960 
   26    5.7926 
   27    8.1920 
   28    11.5850
   29    16.3840
   30    23.1700
   31    32.7680
   32    46.3410
EM data:
Station Component      CH1            CH2            CH3            CH4            CH5            CH6            CH7            CH8            CH9           CH10           CH11           CH12           CH13           CH14           CH15           CH16           CH17           CH18           CH19           CH20           CH21           CH22           CH23           CH24           CH25           CH26           CH27           CH28           CH29           CH30           CH31           CH32      
  0.2      X      7.86412E+02    7.64365E+02    7.34663E+02    7.00306E+02    6.57553E+02    6.10026E+02    5.61820E+02    5.12780E+02    4.62532E+02    4.16696E+02    3.72569E+02    3.34217E+02    3.04272E+02    2.83297E+02    2.69544E+02    2.59117E+02    2.48321E+02    2.34663E+02    2.16647E+02    1.93941E+02    1.65702E+02    1.33790E+02    9.92099E+01    6.67891E+01    3.95648E+01    2.05862E+01    9.22178E+00    3.62659E+00    1.27803E+00    4.09489E-01    1.19119E-01    2.99629E-02  
  0.2      Y     -4.37416E+02   -4.23024E+02   -4.03864E+02   -3.82003E+02   -3.55210E+02   -3.25920E+02   -2.96716E+02   -2.67483E+02   -2.37921E+02   -2.11270E+02   -1.86149E+02   -1.65249E+02   -1.50044E+02   -1.40238E+02   -1.33963E+02   -1.28674E+02   -1.22588E+02   -1.14715E+02   -1.04406E+02   -9.15929E+01   -7.59765E+01   -5.88249E+01   -4.09701E+01   -2.51534E+01   -1.29121E+01   -5.36035E+00   -1.63288E+00   -3.11185E-01   -3.33309E-03    2.99954E-02    2.11414E-02    9.68224E-03  
  0.2      Z      4.03763E+04    3.92124E+04    3.76377E+04    3.58191E+04    3.35627E+04    3.10617E+04    2.85298E+04    2.59551E+04    2.33150E+04    2.09042E+04    1.85863E+04    1.65887E+04    1.50674E+04    1.40587E+04    1.34507E+04    1.30128E+04    1.25500E+04    1.19527E+04    1.11591E+04    1.01511E+04    8.88087E+03    7.41452E+03    5.77120E+03    4.15023E+03    2.68605E+03    1.55871E+03    7.92697E+02    3.55479E+02    1.41892E+02    5.10939E+01    1.64982E+01    4.42720E+00  
  5.2      X      4.46452E+03    4.33467E+03    4.16027E+03    3.95924E+03    3.70996E+03    3.43376E+03    3.15422E+03    2.87004E+03    2.57866E+03    2.31257E+03    2.05660E+03    1.83564E+03    1.66642E+03    1.55247E+03    1.48140E+03    1.42794E+03    1.37048E+03    1.29643E+03    1.19849E+03    1.07499E+03    9.21143E+02    7.46736E+02    5.56708E+02    3.77080E+02    2.24580E+02    1.16904E+02    5.17036E+01    1.95743E+01    6.42360E+00    1.87062E+00    4.96327E-01    1.17315E-01  
  5.2      Y      6.89370E+02    6.70747E+02    6.45531E+02    6.16192E+02    5.79437E+02    5.38253E+02    4.96100E+02    4.52809E+02    4.08089E+02    3.67022E+02    3.27154E+02    2.92169E+02    2.64901E+02    2.46517E+02    2.35538E+02    2.27888E+02    2.19862E+02    2.09400E+02    1.95385E+02    1.77439E+02    1.54623E+02    1.28074E+02    9.81998E+01    6.88575E+01    4.28065E+01    2.34227E+01    1.09456E+01    4.36228E+00    1.48743E+00    4.48274E-01    1.28016E-01    3.42834E-02  
  5.2      Z      3.90851E+04    3.79593E+04    3.64355E+04    3.46756E+04    3.24919E+04    3.00714E+04    2.76208E+04    2.51289E+04    2.25736E+04    2.02403E+04    1.79967E+04    1.60631E+04    1.45904E+04    1.36141E+04    1.30263E+04    1.26036E+04    1.21575E+04    1.15820E+04    1.08172E+04    9.84568E+03    8.62106E+03    7.20634E+03    5.61886E+03    4.04981E+03    2.62847E+03    1.53015E+03    7.80788E+02    3.51260E+02    1.40602E+02    5.07441E+01    1.64112E+01    4.40756E+00  
  10.2     X      7.86832E+03    7.63867E+03    7.33026E+03    6.97477E+03    6.53403E+03    6.04573E+03    5.55161E+03    5.04939E+03    4.53453E+03    4.06445E+03    3.61242E+03    3.22253E+03    2.92454E+03    2.72469E+03    2.60071E+03    2.50749E+03    2.40686E+03    2.27699E+03    2.10528E+03    1.88886E+03    1.61940E+03    1.31396E+03    9.80970E+02    6.65736E+02    3.97427E+02    2.07321E+02    9.17737E+01    3.46728E+01    1.13050E+01    3.25722E+00    8.54147E-01    2.00164E-01  
  10.2     Y      1.06370E+02    1.04695E+02    1.02182E+02    9.89346E+01    9.44414E+01    8.89266E+01    8.28489E+01    7.62774E+01    6.93186E+01    6.28686E+01    5.64417E+01    5.04693E+01    4.55494E+01    4.22927E+01    4.07497E+01    4.01429E+01    3.96298E+01    3.88127E+01    3.75139E+01    3.55545E+01    3.26087E+01    2.85797E+01    2.33283E+01    1.74677E+01    1.16610E+01    6.88358E+00    3.48180E+00    1.49024E+00    5.36731E-01    1.71551E-01    5.51091E-02    1.71951E-02  
  10.2     Z      3.55467E+04    3.45243E+04    3.31395E+04    3.15397E+04    2.95545E+04    2.73540E+04    2.51260E+04    2.28604E+04    2.05371E+04    1.84157E+04    1.63758E+04    1.46178E+04    1.32791E+04    1.23925E+04    1.18601E+04    1.14793E+04    1.10786E+04    1.05620E+04    9.87545E+03    9.00269E+03    7.90126E+03    6.62620E+03    5.19042E+03    3.76369E+03    2.46151E+03    1.44556E+03    7.44666E+02    3.38165E+02    1.36523E+02    4.96236E+01    1.61300E+01    4.34361E+00  
  15.2     X      7.85204E+03    7.62286E+03    7.31507E+03    6.96029E+03    6.52041E+03    6.03307E+03    5.53992E+03    5.03868E+03    4.52485E+03    4.05571E+03    3.60460E+03    3.21552E+03    2.91818E+03    2.71879E+03    2.59511E+03    2.50213E+03    2.40175E+03    2.27218E+03    2.10088E+03    1.88498E+03    1.61616E+03    1.31142E+03    9.79178E+02    6.64618E+02    3.96838E+02    2.07064E+02    9.16845E+01    3.46484E+01    1.12996E+01    3.25622E+00    8.53994E-01    2.00145E-01  
  15.2     Y      1.37097E+02    1.34461E+02    1.30630E+02    1.25833E+02    1.19382E+02    1.11669E+02    1.03365E+02    9.45563E+01    8.53568E+01    7.69211E+01    6.86563E+01    6.11937E+01    5.52523E+01    5.14246E+01    4.95940E+01    4.87603E+01    4.79480E+01    4.67126E+01    4.48452E+01    4.21535E+01    3.82772E+01    3.31768E+01    2.67467E+01    1.97693E+01    1.30181E+01    7.57924E+00    3.78084E+00    1.59704E+00    5.68119E-01    1.79290E-01    5.68231E-02    1.75527E-02  
  15.2     Z      3.45279E+04    3.35355E+04    3.21911E+04    3.06378E+04    2.87103E+04    2.65735E+04    2.44101E+04    2.22100E+04    1.99538E+04    1.78935E+04    1.59124E+04    1.42048E+04    1.29046E+04    1.20436E+04    1.15273E+04    1.11589E+04    1.07719E+04    1.02731E+04    9.61015E+03    8.76716E+03    7.70272E+03    6.46923E+03    5.07791E+03    3.69178E+03    2.42215E+03    1.42731E+03    7.37754E+02    3.36016E+02    1.35968E+02    4.95015E+01    1.61059E+01    4.33915E+00  
  20.2     X      1.19039E+04    1.15561E+04    1.10890E+04    1.05506E+04    9.88325E+03    9.14395E+03    8.39590E+03    7.63561E+03    6.85619E+03    6.14451E+03    5.46009E+03    4.86975E+03    4.41865E+03    4.11630E+03    3.92883E+03    3.78774E+03    3.63520E+03    3.43838E+03    3.17848E+03    2.85142E+03    2.44483E+03    1.98450E+03    1.48295E+03    1.00790E+03    6.02845E+02    3.15051E+02    1.39589E+02    5.26857E+01    1.71168E+01    4.90258E+00    1.27706E+00    2.97773E-01  
  20.2     Y      2.39969E+02    2.34226E+02    2.26174E+02    2.16452E+02    2.03827E+02    1.89226E+02    1.73947E+02    1.58098E+02    1.41776E+02    1.26943E+02    1.12647E+02    1.00138E+02    9.05393E+01    8.44645E+01    8.13753E+01    7.95991E+01    7.76875E+01    7.49850E+01    7.11617E+01    6.59898E+01    5.90003E+01    5.03265E+01    3.99210E+01    2.90570E+01    1.88378E+01    1.07839E+01    5.27676E+00    2.18488E+00    7.62640E-01    2.34821E-01    7.11314E-02    2.08697E-02  
  20.2     Z      3.58319E+04    3.48022E+04    3.34075E+04    3.17962E+04    2.97966E+04    2.75799E+04    2.53353E+04    2.30526E+04    2.07115E+04    1.85736E+04    1.65174E+04    1.47448E+04    1.33946E+04    1.25005E+04    1.19643E+04    1.15818E+04    1.11800E+04    1.06622E+04    9.97409E+03    9.09936E+03    7.99502E+03    6.71526E+03    5.27138E+03    3.83214E+03    2.51308E+03    1.47916E+03    7.62874E+02    3.46309E+02    1.39549E+02    5.05821E+01    1.63980E+01    4.40868E+00  
  25.2     X      1.34502E+04    1.30575E+04    1.25301E+04    1.19221E+04    1.11684E+04    1.03334E+04    9.48844E+03    8.62965E+03    7.74924E+03    6.94528E+03    6.17197E+03    5.50474E+03    4.99473E+03    4.65292E+03    4.44124E+03    4.28228E+03    4.11067E+03    3.88940E+03    3.59745E+03    3.23031E+03    2.77409E+03    2.25738E+03    1.69342E+03    1.15726E+03    6.97220E+02    3.67473E+02    1.64294E+02    6.25282E+01    2.04485E+01    5.88299E+00    1.53660E+00    3.58788E-01  
  25.2     Y     -1.29320E+02   -1.24504E+02   -1.18396E+02   -1.11821E+02   -1.04265E+02   -9.65115E+01   -8.91395E+01   -8.18952E+01   -7.44406E+01   -6.74476E+01   -6.05969E+01   -5.46497E+01   -4.99100E+01   -4.61977E+01   -4.31774E+01   -4.04524E+01   -3.76187E+01   -3.42553E+01   -3.01025E+01   -2.52670E+01   -1.98266E+01   -1.43824E+01   -9.25547E+00   -5.13444E+00   -2.21233E+00   -5.81135E-01    6.66858E-02    1.54438E-01    8.46580E-02    3.65220E-02    1.87643E-02    8.57554E-03  
  25.2     Z      3.05657E+04    2.96903E+04    2.85028E+04    2.71304E+04    2.54271E+04    2.35385E+04    2.16259E+04    1.96806E+04    1.76853E+04    1.58630E+04    1.41104E+04    1.25994E+04    1.14489E+04    1.06884E+04    1.02353E+04    9.91578E+03    9.58281E+03    9.15402E+03    8.58342E+03    7.85637E+03    6.93520E+03    5.86197E+03    4.64152E+03    3.41143E+03    2.26751E+03    1.35484E+03    7.09976E+02    3.27280E+02    1.33692E+02    4.89981E+01    1.60068E+01    4.32071E+00  
  30.2     X      1.47681E+04    1.43369E+04    1.37579E+04    1.30906E+04    1.22632E+04    1.13466E+04    1.04191E+04    9.47639E+03    8.50981E+03    7.62707E+03    6.77788E+03    6.04507E+03    5.48485E+03    5.10936E+03    4.87684E+03    4.70227E+03    4.51385E+03    4.27099E+03    3.95067E+03    3.54802E+03    3.04785E+03    2.48146E+03    1.86315E+03    1.27483E+03    7.69278E+02    4.06151E+02    1.81875E+02    6.92954E+01    2.26707E+01    6.52058E+00    1.70199E+00    3.97139E-01  
  30.2     Y     -2.26917E+02   -2.19290E+02   -2.09442E+02   -1.98599E+02   -1.85795E+02   -1.72257E+02   -1.59025E+02   -1.45780E+02   -1.32098E+02   -1.19338E+02   -1.06861E+02   -9.59699E+01   -8.73352E+01   -8.08741E+01   -7.60216E+01   -7.18421E+01   -6.74350E+01   -6.20730E+01   -5.53261E+01   -4.72959E+01   -3.79965E+01   -2.83495E+01   -1.88843E+01   -1.09602E+01   -5.14007E+00   -1.76437E+00   -2.85751E-01    8.42254E-02    7.84897E-02    3.80829E-02    1.97757E-02    8.91283E-03  
  30.2     Z      2.94438E+04    2.86017E+04    2.74589E+04    2.61379E+04    2.44983E+04    2.26801E+04    2.08387E+04    1.89657E+04    1.70444E+04    1.52896E+04    1.36017E+04    1.21465E+04    1.10386E+04    1.03069E+04    9.87203E+03    9.56711E+03    9.25038E+03    8.84258E+03    8.29951E+03    7.60673E+03    6.72744E+03    5.70042E+03    4.52836E+03    3.34141E+03    2.23108E+03    1.33929E+03    7.04881E+02    3.26077E+02    1.33530E+02    4.90101E+01    1.60223E+01    4.32613E+00  
  35.2     X      1.62184E+04    1.57453E+04    1.51099E+04    1.43776E+04    1.34696E+04    1.24636E+04    1.14456E+04    1.04107E+04    9.34969E+03    8.38055E+03    7.44804E+03    6.64302E+03    6.02733E+03    5.61454E+03    5.35903E+03    5.16746E+03    4.96094E+03    4.69493E+03    4.34430E+03    3.90379E+03    3.35679E+03    2.73729E+03    2.06026E+03    1.41449E+03    8.57315E+02    4.54855E+02    2.04677E+02    7.82937E+01    2.56799E+01    7.39403E+00    1.93019E+00    4.50307E-01  
  35.2     Y     -4.15193E+01   -3.95823E+01   -3.73673E+01   -3.53076E+01   -3.33698E+01   -3.18325E+01   -3.06913E+01   -2.96700E+01   -2.84478E+01   -2.69968E+01   -2.52969E+01   -2.35514E+01   -2.17416E+01   -1.97577E+01   -1.77235E+01   -1.58320E+01   -1.40311E+01   -1.20368E+01   -9.67342E+00   -7.04887E+00   -4.29535E+00   -1.82156E+00    1.30804E-01    1.26855E+00    1.62862E+00    1.40708E+00    9.09798E-01    4.38665E-01    1.57757E-01    5.01802E-02    2.04913E-02    8.70658E-03  
  35.2     Z      2.83603E+04    2.75507E+04    2.64515E+04    2.51808E+04    2.36033E+04    2.18538E+04    2.00816E+04    1.82787E+04    1.64290E+04    1.47394E+04    1.31141E+04    1.17128E+04    1.06464E+04    9.94313E+03    9.52722E+03    9.23808E+03    8.93928E+03    8.55458E+03    8.04146E+03    7.38536E+03    6.54993E+03    5.56986E+03    4.44489E+03    3.29731E+03    2.21462E+03    1.33701E+03    7.07172E+02    3.28279E+02    1.34673E+02    4.94482E+01    1.61596E+01    4.36146E+00  
  40.2     X      1.89396E+04    1.83881E+04    1.76474E+04    1.67936E+04    1.57349E+04    1.45618E+04    1.33745E+04    1.21673E+04    1.09291E+04    9.79793E+03    8.70908E+03    7.76859E+03    7.04887E+03    6.56633E+03    6.26818E+03    6.04551E+03    5.80610E+03    5.49791E+03    5.09170E+03    4.58128E+03    3.94705E+03    3.22768E+03    2.43926E+03    1.68371E+03    1.02733E+03    5.49068E+02    2.48866E+02    9.57719E+01    3.15402E+01    9.09937E+00    2.37655E+00    5.54381E-01  
  40.2     Y      2.98522E+00    3.43035E+00    3.64467E+00    3.40483E+00    2.50704E+00    9.34904E-01   -1.01936E+00   -3.07496E+00   -4.92757E+00   -6.21267E+00   -7.06278E+00   -7.40797E+00   -7.07313E+00   -5.98275E+00   -4.47545E+00   -3.01762E+00   -1.72406E+00   -3.84151E-01    1.13397E+00    2.72133E+00    4.21587E+00    5.28414E+00    5.69208E+00    5.30132E+00    4.24289E+00    2.88912E+00    1.60938E+00    7.07595E-01    2.40894E-01    7.12629E-02    2.51816E-02    9.67722E-03  
  40.2     Z      2.57807E+04    2.50471E+04    2.40499E+04    2.28965E+04    2.14645E+04    1.98760E+04    1.82667E+04    1.66290E+04    1.49488E+04    1.34139E+04    1.19375E+04    1.06648E+04    9.69698E+03    9.06049E+03    8.68709E+03    8.43133E+03    8.16943E+03    7.83220E+03    7.38108E+03    6.80185E+03    6.06010E+03    5.18345E+03    4.16754E+03    3.11896E+03    2.11601E+03    1.29079E+03    6.89583E+02    3.22869E+02    1.33328E+02    4.91749E+01    1.61128E+01    4.35416E+00  
  45.2     X      1.90695E+04    1.85154E+04    1.77711E+04    1.69131E+04    1.58490E+04    1.46697E+04    1.34758E+04    1.22617E+04    1.10161E+04    9.87784E+03    8.78197E+03    7.83519E+03    7.11061E+03    6.62532E+03    6.32668E+03    6.10534E+03    5.86841E+03    5.56349E+03    5.16115E+03    4.65473E+03    4.02383E+03    3.30549E+03    2.51384E+03    1.74927E+03    1.07817E+03    5.82889E+02    2.67461E+02    1.04149E+02    3.46538E+01    1.00804E+01    2.64866E+00    6.20026E-01  
  45.2     Y     -1.29246E+02   -1.25140E+02   -1.20004E+02   -1.14560E+02   -1.08386E+02   -1.02078E+02   -9.59889E+01   -8.97797E+01   -8.30606E+01   -7.64379E+01   -6.96066E+01   -6.32424E+01   -5.77068E+01   -5.31005E+01   -4.94470E+01   -4.64467E+01   -4.35292E+01   -4.00923E+01   -3.57877E+01   -3.06635E+01   -2.47197E+01   -1.85324E+01   -1.24258E+01   -7.26970E+00   -3.44533E+00   -1.21290E+00   -2.40974E-01   -2.20435E-03    6.07737E-03    2.67809E-03    7.07704E-03    5.44673E-03  
  45.2     Z      2.13714E+04    2.07665E+04    1.99421E+04    1.89879E+04    1.78028E+04    1.64879E+04    1.51554E+04    1.37992E+04    1.24077E+04    1.11368E+04    9.91474E+03    8.86191E+03    8.06262E+03    7.53967E+03    7.23737E+03    7.03598E+03    6.83335E+03    6.57240E+03    6.22133E+03    5.76692E+03    5.17880E+03    4.47415E+03    3.64345E+03    2.76814E+03    1.91083E+03    1.18706E+03    6.45826E+02    3.07432E+02    1.28723E+02    4.79791E+01    1.58303E+01    4.29281E+00  
  50.2     X      1.85567E+04    1.80182E+04    1.72949E+04    1.64610E+04    1.54266E+04    1.42802E+04    1.31194E+04    1.19387E+04    1.07273E+04    9.62022E+03    8.55432E+03    7.63341E+03    6.92883E+03    6.45752E+03    6.16866E+03    5.95607E+03    5.72943E+03    5.43776E+03    5.05241E+03    4.56647E+03    3.95945E+03    3.26571E+03    2.49721E+03    1.74979E+03    1.08781E+03    5.93884E+02    2.75391E+02    1.08341E+02    3.63782E+01    1.06612E+01    2.81701E+00    6.61647E-01  
  50.2     Y     -1.81753E+02   -1.76285E+02   -1.69269E+02   -1.61598E+02   -1.52598E+02   -1.43112E+02   -1.33796E+02   -1.24328E+02   -1.14313E+02   -1.04708E+02   -9.49791E+01   -8.60192E+01   -7.83907E+01   -7.23352E+01   -6.78365E+01   -6.43033E+01   -6.08504E+01   -5.66894E+01   -5.13676E+01   -4.48778E+01   -3.71191E+01   -2.87439E+01   -2.01257E+01   -1.25071E+01   -6.55835E+00   -2.83105E+00   -9.65159E-01   -2.86642E-01   -9.31098E-02   -2.83245E-02   -1.70643E-03    3.26920E-03  
  50.2     Z      1.81858E+04    1.76734E+04    1.69733E+04    1.61625E+04    1.51551E+04    1.40371E+04    1.29040E+04    1.17507E+04    1.05674E+04    9.48693E+03    8.44836E+03    7.55441E+03    6.87714E+03    6.43646E+03    6.18555E+03    6.02315E+03    5.86275E+03    5.65611E+03    5.37631E+03    5.01090E+03    4.53253E+03    3.95118E+03    3.25405E+03    2.50483E+03    1.75488E+03    1.10713E+03    6.11662E+02    2.95259E+02    1.25075E+02    4.70337E+01    1.56083E+01    4.24485E+00  
  55.2     X      1.90418E+04    1.84901E+04    1.77489E+04    1.68942E+04    1.58341E+04    1.46589E+04    1.34688E+04    1.22580E+04    1.10156E+04    9.88007E+03    8.78661E+03    7.84176E+03    7.11884E+03    6.63561E+03    6.34027E+03    6.12404E+03    5.89423E+03    5.59847E+03    5.20738E+03    4.71349E+03    4.09534E+03    3.38694E+03    2.59924E+03    1.82931E+03    1.14313E+03    6.27433E+02    2.92408E+02    1.15482E+02    3.88658E+01    1.13995E+01    3.01163E+00    7.07101E-01  
  55.2     Y      1.78431E+00    1.70814E+00    1.30473E+00    4.57239E-01   -1.05945E+00   -3.16884E+00   -5.52883E+00   -7.87114E+00   -9.91070E+00   -1.12833E+01   -1.20987E+01   -1.22254E+01   -1.15406E+01   -1.01787E+01   -8.69705E+00   -7.58061E+00   -6.81483E+00   -6.09376E+00   -5.23446E+00   -4.23462E+00   -3.11174E+00   -1.99832E+00   -9.75865E-01   -2.03402E-01    2.59302E-01    3.90928E-01    2.84618E-01    1.11253E-01    1.11481E-02   -5.32380E-03    2.86894E-03    4.15859E-03  
  55.2     Z      1.57394E+04    1.52984E+04    1.46941E+04    1.39937E+04    1.31232E+04    1.21568E+04    1.11771E+04    1.01798E+04    9.15674E+03    8.22281E+03    7.32566E+03    6.55433E+03    5.97165E+03    5.59557E+03    5.38629E+03    5.25684E+03    5.13285E+03    4.97287E+03    4.75369E+03    4.46298E+03    4.07499E+03    3.59263E+03    2.99904E+03    2.34307E+03    1.66758E+03    1.06803E+03    5.98100E+02    2.91832E+02    1.24554E+02    4.70494E+01    1.56489E+01    4.25976E+00  
