Data type: dB/dt; UNIT: nT/s
Number of stations: 145
Stations (m): 0.2 2.7 5.2 7.7 10.2 12.7 15.2 17.7 20.2 22.7 25.2 27.7 30.2 32.7 35.2 37.7 40.2 42.7 45.2 47.7 50.2 52.7 55.2 57.7 60.2 62.7 65.2 67.7 70.2 72.7 75.2 77.7 80.2 82.7 85.2 87.7 90.2 92.7 95.2 97.7 100.2 102.7 105.2 107.7 110.2 112.7 115.2 117.7 120.2 122.7 125.2 127.7 130.2 132.7 135.2 137.7 140.2 142.7 145.2 147.7 150.2 152.7 155.2 157.7 160.2 162.7 165.2 167.7 170.2 172.7 175.2 177.7 180.2 182.7 185.2 187.7 190.2 192.7 195.2 197.7 200.2 202.7 205.2 207.7 210.2 212.7 215.2 217.7 220.2 222.7 225.2 227.7 230.2 232.7 235.2 237.7 240.2 242.7 245.2 247.7 250.2 252.7 255.2 257.7 260.2 262.7 265.2 267.7 270.2 272.7 275.2 277.7 280.2 282.7 285.2 287.7 290.2 292.7 295.2 297.7 300.2 302.7 305.2 307.7 310.2 312.7 315.2 317.7 320.2 322.7 325.2 327.7 330.2 332.7 335.2 337.7 340.2 342.7 345.2 347.7 350.2 352.7 355.2 357.7 360.2
Channel times (ms):
   1     0.0010 
   2     0.0014 
   3     0.0020 
   4     0.0028 
   5     0.0040 
   6     0.0057 
   7     0.0080 
   8     0.0113 
   9     0.0160 
   10    0.0226 
   11    0.0320 
   12    0.0453 
   13    0.0640 
   14    0.0905 
   15    0.1280 
   16    0.1810 
   17    0.2560 
   18    0.3620 
   19    0.5120 
   20    0.7241 
   21    1.0240 
   22    1.4482 
   23    2.0480 
   24    2.8963 
   25    4.0960 
   26    5.7926 
   27    8.1920 
   28    11.5850
   29    16.3840
   30    23.1700
   31    32.7680
   32    46.3410
EM data:
Station Component      CH1            CH2            CH3            CH4            CH5            CH6            CH7            CH8            CH9           CH10           CH11           CH12           CH13           CH14           CH15           CH16           CH17           CH18           CH19           CH20           CH21           CH22           CH23           CH24           CH25           CH26           CH27           CH28           CH29           CH30           CH31           CH32      
  0.2      X      2.96333E+03    2.68598E+03    2.40395E+03    2.15600E+03    1.92183E+03    1.73247E+03    1.60066E+03    1.51253E+03    1.44862E+03    1.39339E+03    1.32533E+03    1.23666E+03    1.12269E+03    9.80260E+02    8.12720E+02    6.27312E+02    4.41102E+02    2.76006E+02    1.49443E+02    6.97807E+01    2.76407E+01    9.27503E+00    2.62572E+00    5.56468E-01    7.45951E-02    4.53601E-03    9.06168E-05    5.20417E-08    6.07153E-09   -1.46584E-07   -1.41380E-07   -1.24033E-07  
  0.2      Y     -3.21588E+02   -3.45912E+02   -3.45953E+02   -3.22875E+02   -2.81124E+02   -2.35052E+02   -2.01041E+02   -1.83779E+02   -1.77759E+02   -1.73663E+02   -1.66418E+02   -1.55734E+02   -1.41493E+02   -1.23178E+02   -1.01034E+02   -7.60010E+01   -5.06589E+01   -2.85623E+01   -1.26153E+01   -3.88678E+00   -4.64245E-01    2.45480E-01    1.57441E-01    4.16993E-02    5.77230E-03    3.48777E-04    6.55725E-06   -5.16948E-07   -3.81639E-08   -3.57353E-07   -4.85723E-07   -1.45717E-07  
  0.2      Z      2.64543E+05    2.39027E+05    2.12977E+05    1.89985E+05    1.68382E+05    1.51290E+05    1.39922E+05    1.32874E+05    1.28151E+05    1.24094E+05    1.18948E+05    1.12153E+05    1.03337E+05    9.21813E+04    7.88051E+04    6.35709E+04    4.75989E+04    3.25168E+04    1.98616E+04    1.08328E+04    5.18190E+03    2.12162E+03    7.06096E+02    1.64663E+02    2.29854E+01    1.41760E+00    2.84290E-02    1.19710E-04   -2.63678E-07   -3.67761E-07   -4.85723E-08    2.08167E-07  
  2.7      X      1.59404E+04    1.44066E+04    1.28409E+04    1.14588E+04    1.01580E+04    9.12313E+03    8.42586E+03    7.98121E+03    7.66897E+03    7.39227E+03    7.04039E+03    6.57741E+03    5.98018E+03    5.23144E+03    4.34746E+03    3.36533E+03    2.37489E+03    1.49306E+03    8.14029E+02    3.84324E+02    1.55154E+02    5.37024E+01    1.58249E+01    3.48044E+00    4.77493E-01    2.93411E-02    5.88178E-04    2.26143E-06    3.09431E-07   -4.65123E-07    1.43115E-08   -2.96421E-07  
  2.7      Y      2.55462E+03    2.25468E+03    1.97267E+03    1.74616E+03    1.55241E+03    1.41077E+03    1.31823E+03    1.25514E+03    1.20532E+03    1.16008E+03    1.10430E+03    1.03190E+03    9.38896E+02    8.22700E+02    6.85928E+02    5.34221E+02    3.81044E+02    2.43808E+02    1.36624E+02    6.70440E+01    2.84271E+01    1.03584E+01    3.17236E+00    7.10762E-01    9.80136E-02    6.02846E-03    1.20431E-04    2.77556E-08   -4.44089E-07   -2.22045E-07   -3.33067E-07   -2.77556E-08  
  2.7      Z      2.74381E+05    2.47910E+05    2.20885E+05    1.97033E+05    1.74621E+05    1.56890E+05    1.45093E+05    1.37775E+05    1.32865E+05    1.28641E+05    1.23281E+05    1.16204E+05    1.07024E+05    9.54112E+04    8.14951E+04    6.56598E+04    4.90798E+04    3.34537E+04    2.03768E+04    1.10787E+04    5.28250E+03    2.15698E+03    7.16669E+02    1.67013E+02    2.33095E+01    1.43756E+00    2.88293E-02    1.21375E-04   -1.66533E-07   -3.33067E-07    4.16334E-07    6.38378E-07  
  5.2      X      2.21543E+04    2.00212E+04    1.78423E+04    1.59178E+04    1.41060E+04    1.26656E+04    1.16966E+04    1.10806E+04    1.06494E+04    1.02668E+04    9.77934E+03    9.13761E+03    8.30976E+03    7.27183E+03    6.04620E+03    4.68396E+03    3.30922E+03    2.08379E+03    1.13856E+03    5.39017E+02    2.18349E+02    7.58792E+01    2.24472E+01    4.95102E+00    6.80264E-01    4.18269E-02    8.38357E-04    2.99760E-06    2.77556E-07    1.11022E-07    2.77556E-08   -2.77556E-08  
  5.2      Y     -8.37280E+02   -8.04633E+02   -7.47922E+02   -6.76351E+02   -5.91016E+02   -5.12701E+02   -4.59036E+02   -4.30307E+02   -4.15953E+02   -4.03561E+02   -3.85329E+02   -3.60127E+02   -3.27125E+02   -2.85238E+02   -2.35223E+02   -1.79225E+02   -1.22759E+02   -7.31872E+01   -3.64141E+01   -1.48163E+01   -4.74100E+00   -1.19195E+00   -2.57955E-01   -4.90300E-02   -6.67631E-03   -4.17002E-04   -8.88178E-06   -6.78277E-07   -1.96024E-07   -4.25007E-07   -3.52149E-07   -3.71231E-07  
  5.2      Z      2.65832E+05    2.40194E+05    2.14016E+05    1.90910E+05    1.69198E+05    1.52021E+05    1.40596E+05    1.33513E+05    1.28768E+05    1.24692E+05    1.19521E+05    1.12693E+05    1.03835E+05    9.26259E+04    7.91867E+04    6.38808E+04    4.78328E+04    3.26772E+04    1.99588E+04    1.08841E+04    5.20512E+03    2.13052E+03    7.08911E+02    1.65305E+02    2.30745E+01    1.42310E+00    2.85392E-02    1.20237E-04   -5.13478E-07   -1.94289E-07    4.16334E-08    6.45317E-07  
  7.7      X      3.31141E+04    2.99186E+04    2.66540E+04    2.37703E+04    2.10565E+04    1.89015E+04    1.74552E+04    1.65386E+04    1.58981E+04    1.53287E+04    1.46017E+04    1.36444E+04    1.24096E+04    1.08616E+04    9.03381E+03    7.00214E+03    4.95104E+03    3.12129E+03    1.70814E+03    8.10271E+02    3.29033E+02    1.14673E+02    3.40203E+01    7.51963E+00    1.03438E+00    6.36301E-02    1.27587E-03    5.21805E-06    5.55112E-07   -2.77556E-07   -2.77556E-07   -2.22045E-07  
  7.7      Y      8.86394E+02    7.57203E+02    6.47360E+02    5.70462E+02    5.14609E+02    4.79410E+02    4.55955E+02    4.35564E+02    4.15998E+02    3.98688E+02    3.79079E+02    3.54431E+02    3.23160E+02    2.84513E+02    2.39450E+02    1.89694E+02    1.39175E+02    9.29198E+01    5.52060E+01    2.90604E+01    1.32722E+01    5.15803E+00    1.64429E+00    3.74025E-01    5.16805E-02    3.17636E-03    6.34215E-05   -8.04912E-07   -3.05311E-07   -5.55112E-07   -4.30211E-07   -3.05311E-07  
  7.7      Z      2.61917E+05    2.36653E+05    2.10859E+05    1.88093E+05    1.66703E+05    1.49782E+05    1.38529E+05    1.31557E+05    1.26889E+05    1.22882E+05    1.17800E+05    1.11089E+05    1.02383E+05    9.13646E+04    7.81506E+04    6.30933E+04    4.72924E+04    3.23512E+04    1.97909E+04    1.08105E+04    5.17788E+03    2.12190E+03    7.06537E+02    1.64799E+02    2.30055E+01    1.41885E+00    2.84546E-02    1.19876E-04   -5.82867E-07   -7.49401E-07    6.93889E-07    3.33067E-07  
  10.2     X      3.83254E+04    3.46235E+04    3.08420E+04    2.75023E+04    2.43602E+04    2.18661E+04    2.01931E+04    1.91334E+04    1.83930E+04    1.77345E+04    1.68934E+04    1.57858E+04    1.43573E+04    1.25667E+04    1.04529E+04    8.10335E+03    5.73123E+03    3.61460E+03    1.97919E+03    9.39465E+02    3.81791E+02    1.33174E+02    3.95411E+01    8.74512E+00    1.20333E+00    7.40327E-02    1.48420E-03    5.71765E-06    4.44089E-07   -5.55112E-08   -6.10623E-07   -7.77156E-07  
  10.2     Y      2.50001E+02    1.86697E+02    1.43193E+02    1.23795E+02    1.20710E+02    1.25967E+02    1.28515E+02    1.24001E+02    1.15587E+02    1.08586E+02    1.02346E+02    9.53388E+01    8.68437E+01    7.68010E+01    6.56285E+01    5.37628E+01    4.18555E+01    3.05276E+01    2.03133E+01    1.20765E+01    6.17374E+00    2.61316E+00    8.73005E-01    2.01606E-01    2.78660E-02    1.71013E-03    3.38340E-05   -8.88178E-07    3.33067E-07    0.00000E+00   -1.63758E-06   -5.82867E-07  
  10.2     Z      2.61063E+05    2.35880E+05    2.10169E+05    1.87477E+05    1.66156E+05    1.49291E+05    1.38077E+05    1.31129E+05    1.26480E+05    1.22490E+05    1.17430E+05    1.10748E+05    1.02080E+05    9.11089E+04    7.79504E+04    6.29532E+04    4.72091E+04    3.23126E+04    1.97798E+04    1.08109E+04    5.18058E+03    2.12368E+03    7.07246E+02    1.64974E+02    2.30303E+01    1.42039E+00    2.84844E-02    1.19765E-04   -4.44089E-07   -5.27356E-07    1.11022E-07    7.21645E-07  
  12.7     X      4.95227E+04    4.47351E+04    3.98442E+04    3.55245E+04    3.14609E+04    2.82367E+04    2.60756E+04    2.47082E+04    2.37534E+04    2.29034E+04    2.18172E+04    2.03868E+04    1.85428E+04    1.62324E+04    1.35058E+04    1.04756E+04    7.41545E+03    4.68277E+03    2.56837E+03    1.22153E+03    4.97486E+02    1.73903E+02    5.17273E+01    1.14534E+01    1.57683E+00    9.70318E-02    1.94611E-03    7.88258E-06    4.44089E-07   -1.11022E-07   -7.77156E-07   -1.11022E-07  
  12.7     Y      1.28157E+03    1.12511E+03    9.84873E+02    8.78228E+02    7.90944E+02    7.27269E+02    6.82086E+02    6.46697E+02    6.16868E+02    5.91209E+02    5.61227E+02    5.22877E+02    4.73879E+02    4.13032E+02    3.41995E+02    2.64052E+02    1.86435E+02    1.18038E+02    6.55631E+01    3.20337E+01    1.35984E+01    4.97558E+00    1.52713E+00    3.41643E-01    4.69906E-02    2.88580E-03    5.78426E-05   -6.66134E-07    1.66533E-07   -1.11022E-07   -1.38778E-06   -5.55112E-07  
  12.7     Z      2.57079E+05    2.32281E+05    2.06964E+05    1.84618E+05    1.63625E+05    1.47019E+05    1.35980E+05    1.29144E+05    1.24575E+05    1.20656E+05    1.15688E+05    1.09128E+05    1.00618E+05    8.98441E+04    7.69178E+04    6.21756E+04    4.66831E+04    3.20019E+04    1.96248E+04    1.07459E+04    5.15800E+03    2.11708E+03    7.05555E+02    1.64627E+02    2.29836E+01    1.41752E+00    2.84270E-02    1.19904E-04   -6.66134E-07   -6.66134E-07   -1.11022E-07    1.11022E-06  
  15.2     X      5.83048E+04    5.26660E+04    4.69048E+04    4.18157E+04    3.70285E+04    3.32309E+04    3.06866E+04    2.90781E+04    2.79554E+04    2.69556E+04    2.56774E+04    2.39947E+04    2.18263E+04    1.91109E+04    1.59072E+04    1.23472E+04    8.75064E+03    5.53530E+03    3.04273E+03    1.45087E+03    5.92516E+02    2.07663E+02    6.18907E+01    1.37186E+01    1.88945E+00    1.16283E-01    2.33166E-03    9.08995E-06   -4.16334E-08   -2.08167E-07   -5.55112E-07    0.00000E+00  
  15.2     Y     -2.91796E+02   -2.90651E+02   -2.71174E+02   -2.38184E+02   -1.95782E+02   -1.58247E+02   -1.36815E+02   -1.30556E+02   -1.31000E+02   -1.29886E+02   -1.25347E+02   -1.18148E+02   -1.08339E+02   -9.54191E+01   -7.93677E+01   -6.06775E+01   -4.11722E+01   -2.36534E+01   -1.06567E+01   -3.36347E+00   -4.34660E-01    1.96071E-01    1.31222E-01    3.49549E-02    4.82575E-03    2.90934E-04    5.27356E-06   -1.55431E-06    2.22045E-07   -3.88578E-07   -8.32667E-07   -9.99201E-07  
  15.2     Z      2.51546E+05    2.27285E+05    2.02514E+05    1.80652E+05    1.60113E+05    1.43869E+05    1.33072E+05    1.26391E+05    1.21931E+05    1.18112E+05    1.13271E+05    1.06879E+05    9.85853E+04    8.80832E+04    7.54758E+04    6.10844E+04    4.59388E+04    3.15565E+04    1.93983E+04    1.06483E+04    5.12279E+03    2.10629E+03    7.02661E+02    1.64019E+02    2.29009E+01    1.41244E+00    2.83250E-02    1.19349E-04   -9.99201E-07   -6.66134E-07   -1.11022E-07    1.11022E-07  
  17.7     X      6.41359E+04    5.79330E+04    5.15946E+04    4.59949E+04    4.07267E+04    3.65475E+04    3.37480E+04    3.19785E+04    3.07433E+04    2.96426E+04    2.82350E+04    2.63821E+04    2.39948E+04    2.10060E+04    1.74809E+04    1.35650E+04    9.61036E+03    6.07639E+03    3.33814E+03    1.59050E+03    6.48931E+02    2.27225E+02    6.76786E+01    1.49982E+01    2.06568E+00    1.27132E-01    2.54952E-03    9.76996E-06    0.00000E+00    2.22045E-07   -6.66134E-07   -6.66134E-07  
  17.7     Y     -7.60289E+02   -7.09001E+02   -6.39269E+02   -5.63044E+02   -4.81377E+02   -4.14117E+02   -3.73729E+02   -3.55693E+02   -3.47313E+02   -3.37559E+02   -3.21674E+02   -2.99547E+02   -2.70603E+02   -2.33946E+02   -1.90361E+02   -1.41958E+02   -9.38775E+01   -5.27672E+01   -2.36287E+01   -7.81831E+00   -1.46648E+00    9.98424E-02    1.59224E-01    4.70218E-02    6.70200E-03    4.09672E-04    5.91194E-06   -1.22125E-06    1.11022E-07   -3.60822E-07   -6.93889E-07    1.11022E-07  
  17.7     Z      2.49953E+05    2.25847E+05    2.01235E+05    1.79514E+05    1.59106E+05    1.42967E+05    1.32240E+05    1.25605E+05    1.21179E+05    1.17392E+05    1.12592E+05    1.06254E+05    9.80305E+04    8.76157E+04    7.51097E+04    6.08268E+04    4.57835E+04    3.14820E+04    1.93743E+04    1.06464E+04    5.12633E+03    2.10895E+03    7.03757E+02    1.64293E+02    2.29398E+01    1.41485E+00    2.83734E-02    1.20376E-04   -5.27356E-07   -7.77156E-07    1.66533E-07    1.27676E-06  
  20.2     X      7.57255E+04    6.84010E+04    6.09159E+04    5.43023E+04    4.80798E+04    4.31436E+04    3.98371E+04    3.77476E+04    3.62891E+04    3.49889E+04    3.33260E+04    3.11379E+04    2.83201E+04    2.47943E+04    2.06379E+04    1.60219E+04    1.13597E+04    7.19063E+03    3.95608E+03    1.88799E+03    7.71557E+02    2.70554E+02    8.06711E+01    1.78885E+01    2.46438E+00    1.51683E-01    3.04157E-03    1.28786E-05    7.77156E-07   -4.44089E-07   -8.88178E-07   -3.33067E-07  
  20.2     Y      5.87170E+02    5.15663E+02    4.57789E+02    4.18927E+02    3.89739E+02    3.66726E+02    3.45187E+02    3.23589E+02    3.04538E+02    2.90172E+02    2.75243E+02    2.56753E+02    2.33344E+02    2.04505E+02    1.71062E+02    1.34465E+02    9.77889E+01    6.47584E+01    3.82874E+01    2.01716E+01    9.27235E+00    3.63436E+00    1.16509E+00    2.65347E-01    3.66295E-02    2.25020E-03    4.37428E-05    1.11022E-07   -1.11022E-07   -4.44089E-07   -1.33227E-06   -1.44329E-06  
  20.2     Z      2.50196E+05    2.26066E+05    2.01431E+05    1.79688E+05    1.59262E+05    1.43109E+05    1.32374E+05    1.25736E+05    1.21311E+05    1.17528E+05    1.12734E+05    1.06403E+05    9.81875E+04    8.77822E+04    7.52842E+04    6.10035E+04    4.59505E+04    3.16236E+04    1.94778E+04    1.07102E+04    5.15878E+03    2.12245E+03    7.08232E+02    1.65332E+02    2.30846E+01    1.42378E+00    2.85534E-02    1.20570E-04   -2.22045E-07   -2.22045E-07    4.44089E-07    1.11022E-06  
  22.7     X      8.30468E+04    7.50075E+04    6.67931E+04    5.95363E+04    5.27103E+04    4.72975E+04    4.36738E+04    4.13853E+04    3.97888E+04    3.83657E+04    3.65457E+04    3.41516E+04    3.10700E+04    2.72155E+04    2.26726E+04    1.76260E+04    1.25234E+04    7.95072E+03    4.39099E+03    2.10476E+03    8.64131E+02    3.04304E+02    9.10072E+01    2.02097E+01    2.78536E+00    1.71457E-01    3.43925E-03    1.33227E-05    4.44089E-07    4.44089E-07    6.66134E-07    1.33227E-06  
  22.7     Y      2.26689E+02    1.96025E+02    1.78238E+02    1.72985E+02    1.73448E+02    1.72197E+02    1.64196E+02    1.50964E+02    1.38273E+02    1.30163E+02    1.23460E+02    1.15896E+02    1.06702E+02    9.57973E+01    8.35326E+01    7.01690E+01    5.61212E+01    4.18861E+01    2.82422E+01    1.68129E+01    8.54105E+00    3.59118E+00    1.19772E+00    2.77321E-01    3.84521E-02    2.36344E-03    4.60743E-05   -2.22045E-07   -3.33067E-07   -6.66134E-07   -9.99201E-07   -9.99201E-07  
  22.7     Z      2.33967E+05    2.11408E+05    1.88379E+05    1.68057E+05    1.48968E+05    1.33874E+05    1.23851E+05    1.17663E+05    1.13555E+05    1.10055E+05    1.05627E+05    9.97765E+04    9.21799E+04    8.25475E+04    7.09578E+04    5.76800E+04    4.36301E+04    3.01864E+04    1.87101E+04    1.03571E+04    5.02066E+03    2.07610E+03    6.94853E+02    1.62408E+02    2.26833E+01    1.39908E+00    2.80563E-02    1.18350E-04   -1.22125E-06   -1.44329E-06   -7.77156E-07    9.99201E-07  
  25.2     X      8.91729E+04    8.05396E+04    7.17187E+04    6.39264E+04    5.65971E+04    5.07852E+04    4.68944E+04    4.44373E+04    4.27236E+04    4.11963E+04    3.92435E+04    3.66751E+04    3.33698E+04    2.92364E+04    2.43652E+04    1.89533E+04    1.34788E+04    8.56820E+03    4.73970E+03    2.27606E+03    9.36204E+02    3.30236E+02    9.88784E+01    2.19703E+01    3.02856E+00    1.86435E-01    3.73826E-03    1.52656E-05    9.99201E-07    1.38778E-07   -9.99201E-07    3.33067E-07  
  25.2     Y      1.34401E+03    1.21041E+03    1.08593E+03    9.84747E+02    8.93124E+02    8.17154E+02    7.58019E+02    7.11983E+02    6.76307E+02    6.47722E+02    6.14791E+02    5.72693E+02    5.19071E+02    4.52741E+02    3.75568E+02    2.91037E+02    2.06726E+02    1.31964E+02    7.39768E+01    3.64316E+01    1.55466E+01    5.70561E+00    1.75535E+00    3.93574E-01    5.42131E-02    3.33233E-03    6.53921E-05   -3.33067E-07    3.33067E-07   -6.66134E-07   -3.33067E-07    1.11022E-07  
  25.2     Z      2.28102E+05    2.06111E+05    1.83662E+05    1.63853E+05    1.45247E+05    1.30539E+05    1.20775E+05    1.14753E+05    1.10763E+05    1.07372E+05    1.03082E+05    9.74147E+04    9.00525E+04    8.07115E+04    6.94615E+04    5.65543E+04    4.28679E+04    2.97349E+04    1.84839E+04    1.02619E+04    4.98756E+03    2.06645E+03    6.92390E+02    1.61904E+02    2.26153E+01    1.39491E+00    2.79741E-02    1.18794E-04    2.22045E-07   -1.55431E-06   -6.66134E-07    1.77636E-06  
  27.7     X      9.57618E+04    8.64888E+04    7.70141E+04    6.86444E+04    6.07719E+04    5.45299E+04    5.03518E+04    4.77142E+04    4.58753E+04    4.42367E+04    4.21419E+04    3.93878E+04    3.58454E+04    3.14177E+04    2.62011E+04    2.04049E+04    1.45368E+04    9.26375E+03    5.14077E+03    2.47748E+03    1.02278E+03    3.61953E+02    1.08620E+02    2.41610E+01    3.33159E+00    2.05103E-01    4.11218E-03    1.82354E-05   -1.44329E-06    0.00000E+00   -1.13798E-06   -1.11022E-06  
  27.7     Y     -5.62446E+02   -5.05113E+02   -4.36490E+02   -3.69157E+02   -3.04435E+02   -2.58247E+02   -2.36594E+02   -2.31806E+02   -2.31704E+02   -2.28085E+02   -2.19805E+02   -2.07773E+02   -1.91812E+02   -1.71193E+02   -1.45888E+02   -1.16370E+02   -8.48186E+01   -5.48731E+01   -3.03547E+01   -1.41365E+01   -5.41734E+00   -1.72980E+00   -4.77863E-01   -1.03400E-01   -1.43419E-02   -8.89122E-04   -1.93179E-05   -7.77156E-07    2.77556E-07   -2.16493E-06   -1.11022E-06    1.72085E-06  
  27.7     Z      2.19782E+05    1.98598E+05    1.76974E+05    1.57895E+05    1.39977E+05    1.25814E+05    1.16418E+05    1.10633E+05    1.06813E+05    1.03579E+05    9.94902E+04    9.40867E+04    8.70618E+04    7.81386E+04    6.73736E+04    5.49924E+04    4.18188E+04    2.91206E+04    1.81817E+04    1.01382E+04    4.94644E+03    2.05522E+03    6.89723E+02    1.61383E+02    2.25459E+01    1.39066E+00    2.78897E-02    1.19682E-04   -1.77636E-06   -2.22045E-06    2.22045E-07   -4.44089E-07  
