Data type: B; UNIT: nT
Number of stations: 145
Stations (m): 0.2 2.7 5.2 7.7 10.2 12.7 15.2 17.7 20.2 22.7 25.2 27.7 30.2 32.7 35.2 37.7 40.2 42.7 45.2 47.7 50.2 52.7 55.2 57.7 60.2 62.7 65.2 67.7 70.2 72.7 75.2 77.7 80.2 82.7 85.2 87.7 90.2 92.7 95.2 97.7 100.2 102.7 105.2 107.7 110.2 112.7 115.2 117.7 120.2 122.7 125.2 127.7 130.2 132.7 135.2 137.7 140.2 142.7 145.2 147.7 150.2 152.7 155.2 157.7 160.2 162.7 165.2 167.7 170.2 172.7 175.2 177.7 180.2 182.7 185.2 187.7 190.2 192.7 195.2 197.7 200.2 202.7 205.2 207.7 210.2 212.7 215.2 217.7 220.2 222.7 225.2 227.7 230.2 232.7 235.2 237.7 240.2 242.7 245.2 247.7 250.2 252.7 255.2 257.7 260.2 262.7 265.2 267.7 270.2 272.7 275.2 277.7 280.2 282.7 285.2 287.7 290.2 292.7 295.2 297.7 300.2 302.7 305.2 307.7 310.2 312.7 315.2 317.7 320.2 322.7 325.2 327.7 330.2 332.7 335.2 337.7 340.2 342.7 345.2 347.7 350.2 352.7 355.2 357.7 360.2
Channel times (ms):
   1     0.0010 
   2     0.0014 
   3     0.0020 
   4     0.0028 
   5     0.0040 
   6     0.0057 
   7     0.0080 
   8     0.0113 
   9     0.0160 
   10    0.0226 
   11    0.0320 
   12    0.0453 
   13    0.0640 
   14    0.0905 
   15    0.1280 
   16    0.1810 
   17    0.2560 
   18    0.3620 
   19    0.5120 
   20    0.7241 
   21    1.0240 
   22    1.4482 
   23    2.0480 
   24    2.8963 
   25    4.0960 
   26    5.7926 
   27    8.1920 
   28    11.5850
   29    16.3840
   30    23.1700
   31    32.7680
   32    46.3410
EM data:
Station Component      CH1            CH2            CH3            CH4            CH5            CH6            CH7            CH8            CH9           CH10           CH11           CH12           CH13           CH14           CH15           CH16           CH17           CH18           CH19           CH20           CH21           CH22           CH23           CH24           CH25           CH26           CH27           CH28           CH29           CH30           CH31           CH32      
  0.2      X     -3.24840E-01   -3.18763E-01   -3.10091E-01   -2.99018E-01   -2.83277E-01   -2.62588E-01   -2.37332E-01   -2.05839E-01   -1.69090E-01   -1.29829E-01   -9.08416E-02   -5.71283E-02   -3.17845E-02   -1.54577E-02   -6.46655E-03   -2.24300E-03   -5.87623E-04   -9.79584E-05   -9.02783E-06   -2.42435E-07   -7.31059E-08    3.98776E-08   -2.83420E-08    1.44555E-08   -1.22472E-08    5.07400E-09   -4.78571E-09    1.08588E-09   -3.41943E-09   -4.69244E-10   -2.96519E-09   -0.00000E+00  
  0.2      Y      3.47934E-02    3.40426E-02    3.29765E-02    3.15964E-02    2.96204E-02    2.70148E-02    2.38334E-02    1.98816E-02    1.53288E-02    1.06044E-02    6.17544E-03    2.75891E-03    6.90639E-04   -1.53306E-04   -2.67382E-04   -1.43675E-04   -4.38631E-05   -7.51903E-06   -7.05335E-07    1.48944E-09   -4.84852E-09    1.57505E-08    3.16924E-09    1.10458E-08    5.64989E-09    8.58538E-09    7.23055E-09    6.82207E-09    5.72023E-09    5.74962E-09    3.13890E-09   -0.00000E+00  
  0.2      Z     -3.61010E+01   -3.55666E+01   -3.47992E+01   -3.38121E+01   -3.23973E+01   -3.05166E+01   -2.81842E+01   -2.52104E+01   -2.16255E+01   -1.76121E+01   -1.33631E+01   -9.33329E+00   -5.91037E+00   -3.32237E+00   -1.60249E+00   -6.22131E-01   -1.74721E-01   -3.00814E-02   -2.83477E-03   -6.60398E-05   -3.09306E-05    1.57572E-05   -1.27308E-05    5.11865E-06   -6.06307E-06    9.41133E-07   -3.44635E-06   -6.97913E-07   -2.42192E-06   -1.32445E-06   -2.19417E-06   -0.00000E+00  
  2.7      X     -1.75015E+00   -1.71807E+00   -1.67217E+00   -1.61342E+00   -1.52979E+00   -1.41973E+00   -1.28516E+00   -1.11703E+00   -9.20379E-01   -7.09650E-01   -4.99638E-01   -3.17121E-01   -1.78927E-01   -8.88373E-02   -3.82262E-02   -1.36904E-02   -3.68872E-03   -6.26139E-04   -5.83943E-05   -1.55390E-06   -5.19895E-07    2.53107E-07   -2.15301E-07    7.83844E-08   -1.05274E-07    1.00844E-08   -6.14319E-08   -1.70455E-08   -4.54507E-08   -2.47720E-08   -4.04935E-08   -0.00000E+00  
  2.7      Y     -2.83561E-01   -2.78527E-01   -2.71315E-01   -2.62095E-01   -2.48977E-01   -2.31707E-01   -2.10574E-01   -1.84123E-01   -1.53070E-01   -1.19571E-01   -8.58093E-02   -5.59110E-02   -3.26270E-02   -1.68287E-02   -7.50859E-03   -2.75983E-03   -7.53488E-04   -1.28413E-04   -1.20041E-05   -2.80877E-07   -9.75086E-08    7.94828E-08   -2.80400E-08    3.91904E-08   -3.65031E-09    2.23323E-08    5.71571E-09    1.35916E-08    5.97533E-09    8.76513E-09    7.41590E-09   -0.00000E+00  
  2.7      Z     -3.71929E+01   -3.66389E+01   -3.58433E+01   -3.48200E+01   -3.33537E+01   -3.14052E+01   -2.89898E+01   -2.59122E+01   -2.22056E+01   -1.80613E+01   -1.36812E+01   -9.53679E+00   -6.02631E+00   -3.38058E+00   -1.62785E+00   -6.31310E-01   -1.77213E-01   -3.05062E-02   -2.87455E-03   -6.70550E-05   -3.13152E-05    1.59444E-05   -1.28910E-05    5.17650E-06   -6.14152E-06    9.47905E-07   -3.49285E-06   -7.10479E-07   -2.45517E-06   -1.34481E-06   -2.22393E-06   -0.00000E+00  
  5.2      X     -2.43912E+00   -2.39458E+00   -2.33084E+00   -2.24925E+00   -2.13308E+00   -1.98017E+00   -1.79317E+00   -1.55946E+00   -1.28593E+00   -9.92588E-01   -6.99902E-01   -4.45106E-01   -2.51766E-01   -1.25369E-01   -5.41176E-02   -1.94378E-02   -5.24851E-03   -8.91890E-04   -8.32742E-05   -2.18851E-06   -7.55283E-07    3.72386E-07   -3.11501E-07    1.17390E-07   -1.50820E-07    1.73963E-08   -8.74070E-08   -2.26194E-08   -6.38026E-08   -3.35270E-08   -5.25239E-08   -0.00000E+00  
  5.2      Y      8.77497E-02    8.60088E-02    8.35183E-02    8.03116E-02    7.57355E-02    6.97104E-02    6.23530E-02    5.31956E-02    4.25780E-02    3.13988E-02    2.06050E-02    1.17472E-02    5.64972E-03    2.25232E-03    7.46988E-04    2.15075E-04    5.23172E-05    8.81893E-06    8.08766E-07    4.64782E-08    4.37270E-09    1.03977E-08    6.71937E-09    8.98343E-09    7.10367E-09    7.90880E-09    6.93655E-09    5.36680E-09    3.87096E-09    4.35235E-09    6.57291E-09   -0.00000E+00  
  5.2      Z     -3.62742E+01   -3.57373E+01   -3.49662E+01   -3.39744E+01   -3.25528E+01   -3.06630E+01   -2.83193E+01   -2.53313E+01   -2.17290E+01   -1.76960E+01   -1.34260E+01   -9.37637E+00   -5.93677E+00   -3.33657E+00   -1.60905E+00   -6.24593E-01   -1.75402E-01   -3.01980E-02   -2.84588E-03   -6.62278E-05   -3.11031E-05    1.58415E-05   -1.28042E-05    5.14434E-06   -6.09929E-06    9.43545E-07   -3.46820E-06   -7.04198E-07   -2.43711E-06   -1.33433E-06   -2.20714E-06   -0.00000E+00  
  7.7      X     -3.65005E+00   -3.58357E+00   -3.48842E+00   -3.36659E+00   -3.19314E+00   -2.96481E+00   -2.68554E+00   -2.33644E+00   -1.92773E+00   -1.48915E+00   -1.05120E+00   -6.69473E-01   -3.79355E-01   -1.89302E-01   -8.19033E-02   -2.94804E-02   -7.97290E-03   -1.35600E-03   -1.26714E-04   -3.30002E-06   -1.16230E-06    5.80329E-07   -4.77095E-07    1.85392E-07   -2.28853E-07    3.19713E-08   -1.30419E-07   -2.90084E-08   -9.07099E-08   -4.56917E-08   -7.85688E-08   -0.00000E+00  
  7.7      Y     -1.05524E-01   -1.03784E-01   -1.01294E-01   -9.81250E-02   -9.36204E-02   -8.76868E-02   -8.04074E-02   -7.12485E-02   -6.03827E-02   -4.84420E-02   -3.60508E-02   -2.45753E-02   -1.50968E-02   -8.19064E-03   -3.81005E-03   -1.43658E-03   -3.96412E-04   -6.76395E-05   -6.34626E-06   -1.20785E-07   -5.40799E-08    5.77324E-08   -1.06273E-08    3.20833E-08    4.58361E-09    2.07553E-08    9.74326E-09    1.29850E-08    6.46270E-09    7.45063E-09    1.88913E-09   -0.00000E+00  
  7.7      Z     -3.58772E+01   -3.53481E+01   -3.45883E+01   -3.36108E+01   -3.22096E+01   -3.03467E+01   -2.80356E+01   -2.50880E+01   -2.15325E+01   -1.75486E+01   -1.33263E+01   -9.31621E+00   -5.90489E+00   -3.32181E+00   -1.60310E+00   -6.22557E-01   -1.74866E-01   -3.01071E-02   -2.83761E-03   -6.58893E-05   -3.10957E-05    1.58505E-05   -1.27988E-05    5.15181E-06   -6.09300E-06    9.51009E-07   -3.46109E-06   -6.97170E-07   -2.43036E-06   -1.32875E-06   -2.20500E-06   -0.00000E+00  
  10.2     X     -4.22569E+00   -4.14878E+00   -4.03870E+00   -3.89775E+00   -3.69708E+00   -3.43292E+00   -3.10981E+00   -2.70590E+00   -2.23298E+00   -1.72541E+00   -1.21842E+00   -7.76335E-01   -4.40159E-01   -2.19785E-01   -9.51561E-02   -3.42713E-02   -9.27270E-03   -1.57743E-03   -1.47436E-04   -3.82063E-06   -1.35046E-06    6.87665E-07   -5.49734E-07    2.25479E-07   -2.59940E-07    4.47232E-08   -1.45879E-07   -2.87974E-08   -1.04394E-07   -5.20930E-08   -8.81638E-08   -0.00000E+00  
  10.2     Y     -3.37658E-02   -3.32774E-02   -3.25855E-02   -3.17218E-02   -3.05053E-02   -2.89094E-02   -2.69517E-02   -2.44743E-02   -2.14821E-02   -1.80699E-02   -1.43033E-02   -1.04779E-02   -6.94112E-03   -4.03112E-03   -1.97376E-03   -7.65911E-04   -2.13511E-04   -3.64603E-05   -3.42349E-06   -6.33263E-08   -3.25336E-08    3.09944E-08   -7.30957E-09    1.68147E-08    8.32279E-10    9.86182E-09    3.99898E-09    3.63302E-09   -2.26256E-09    2.02780E-09    2.50381E-09   -0.00000E+00  
  10.2     Z     -3.58167E+01   -3.52894E+01   -3.45320E+01   -3.35576E+01   -3.21609E+01   -3.03036E+01   -2.79994E+01   -2.50599E+01   -2.15133E+01   -1.75380E+01   -1.33228E+01   -9.31720E+00   -5.90757E+00   -3.32424E+00   -1.60457E+00   -6.23193E-01   -1.75053E-01   -3.01394E-02   -2.84087E-03   -6.58782E-05   -3.12127E-05    1.58889E-05   -1.28561E-05    5.15507E-06   -6.12808E-06    9.38581E-07   -3.48730E-06   -7.14936E-07   -2.45521E-06   -1.35141E-06   -2.23498E-06   -0.00000E+00  
  12.7     X     -5.46886E+00   -5.36954E+00   -5.22738E+00   -5.04535E+00   -4.78619E+00   -4.44503E+00   -4.02772E+00   -3.50598E+00   -2.89488E+00   -2.23865E+00   -1.58258E+00   -1.00974E+00   -5.73402E-01   -2.86796E-01   -1.24368E-01   -4.48499E-02   -1.21454E-02   -2.06686E-03   -1.93312E-04   -4.96771E-06   -1.80522E-06    9.13641E-07   -7.37258E-07    2.97507E-07   -3.51191E-07    5.45263E-08   -1.99120E-07   -4.11344E-08   -1.40763E-07   -7.63751E-08   -1.28684E-07   -0.00000E+00  
  12.7     Y     -1.40059E-01   -1.37469E-01   -1.33777E-01   -1.29079E-01   -1.22414E-01   -1.13668E-01   -1.03011E-01   -8.97435E-02   -7.42787E-02   -5.77447E-02   -4.12453E-02   -2.67872E-02   -1.56185E-02   -8.07000E-03   -3.60910E-03   -1.32771E-03   -3.61898E-04   -6.16197E-05   -5.72199E-06   -1.54642E-07   -3.83752E-08    2.85855E-08   -1.10841E-08    1.41524E-08   -3.04863E-09    6.37789E-09    6.75930E-10    8.24035E-10   -4.07080E-09   -6.26074E-10   -3.29811E-09   -0.00000E+00  
  12.7     Z     -3.54302E+01   -3.49108E+01   -3.41648E+01   -3.32050E+01   -3.18289E+01   -2.99987E+01   -2.77273E+01   -2.48284E+01   -2.13284E+01   -1.74015E+01   -1.32325E+01   -9.26449E+00   -5.88089E+00   -3.31256E+00   -1.60016E+00   -6.21758E-01   -1.74686E-01   -3.00775E-02   -2.83541E-03   -6.55512E-05   -3.12519E-05    1.59399E-05   -1.28634E-05    5.18460E-06   -6.12153E-06    9.59470E-07   -3.47469E-06   -6.97233E-07   -2.44222E-06   -1.33662E-06   -2.21679E-06   -0.00000E+00  
  15.2     X     -6.45532E+00   -6.33843E+00   -6.17112E+00   -5.95690E+00   -5.65188E+00   -5.25034E+00   -4.75911E+00   -4.14482E+00   -3.42499E+00   -2.65139E+00   -1.87704E+00   -1.19973E+00   -6.82672E-01   -3.42153E-01   -1.48651E-01   -5.36798E-02   -1.45483E-02   -2.47638E-03   -2.31781E-04   -5.88226E-06   -2.21152E-06    1.12130E-06   -9.04280E-07    3.64903E-07   -4.30084E-07    6.84377E-08   -2.43146E-07   -4.99734E-08   -1.72392E-07   -9.33449E-08   -1.55808E-07   -0.00000E+00  
  15.2     Y      2.75042E-02    2.69707E-02    2.61880E-02    2.51562E-02    2.36667E-02    2.16871E-02    1.92468E-02    1.61799E-02    1.25958E-02    8.81462E-03    5.20836E-03    2.37280E-03    6.22920E-04   -1.09783E-04   -2.19468E-04   -1.19994E-04   -3.66975E-05   -6.30254E-06   -5.73232E-07   -3.23076E-09    3.52825E-09    1.31330E-08    7.71578E-09    1.07292E-08    7.97921E-09    8.98469E-09    8.51692E-09    6.23226E-09    1.69573E-09    7.16215E-10   -1.05184E-09   -0.00000E+00  
  15.2     Z     -3.48826E+01   -3.43744E+01   -3.36442E+01   -3.27046E+01   -3.13572E+01   -2.95646E+01   -2.73388E+01   -2.44964E+01   -2.10614E+01   -1.72025E+01   -1.30990E+01   -9.18503E+00   -5.83954E+00   -3.29383E+00   -1.59279E+00   -6.19285E-01   -1.74041E-01   -2.99685E-02   -2.82559E-03   -6.51002E-05   -3.12787E-05    1.59663E-05   -1.28731E-05    5.19679E-06   -6.12325E-06    9.66969E-07   -3.47446E-06   -6.92594E-07   -2.43904E-06   -1.33497E-06   -2.21842E-06   -0.00000E+00  
  17.7     X     -7.08991E+00   -6.96136E+00   -6.77736E+00   -6.54178E+00   -6.20639E+00   -5.76490E+00   -5.22489E+00   -4.54970E+00   -3.75869E+00   -2.90883E+00   -2.05845E+00   -1.31498E+00   -7.47766E-01   -3.74515E-01   -1.62608E-01   -5.86965E-02   -1.59054E-02   -2.70743E-03   -2.53381E-04   -6.45623E-06   -2.41146E-06    1.21243E-06   -9.89701E-07    3.89789E-07   -4.74182E-07    6.76344E-08   -2.71142E-07   -5.76271E-08   -1.91345E-07   -1.06077E-07   -1.72755E-07   -0.00000E+00  
  17.7     Y      6.63311E-02    6.48935E-02    6.28177E-02    6.01375E-02    5.63196E-02    5.13124E-02    4.52343E-02    3.77367E-02    2.91685E-02    2.03540E-02    1.21491E-02    5.83102E-03    1.93808E-03    2.09022E-04   -2.14210E-04   -1.50935E-04   -4.96524E-05   -8.64020E-06   -8.41417E-07    4.07646E-08   -1.45440E-09    4.50665E-08    1.66965E-08    3.47960E-08    2.30286E-08    2.93570E-08    2.44583E-08    2.28794E-08    2.04147E-08    2.26773E-08    2.44931E-08   -0.00000E+00  
  17.7     Z     -3.47689E+01   -3.42638E+01   -3.35381E+01   -3.26042E+01   -3.12649E+01   -2.94827E+01   -2.72694E+01   -2.44418E+01   -2.10232E+01   -1.71801E+01   -1.30900E+01   -9.18466E+00   -5.84291E+00   -3.29736E+00   -1.59504E+00   -6.20271E-01   -1.74333E-01   -3.00190E-02   -2.83072E-03   -6.50759E-05   -3.14784E-05    1.60238E-05   -1.29754E-05    5.19460E-06   -6.18863E-06    9.41042E-07   -3.52480E-06   -7.27464E-07   -2.48173E-06   -1.36483E-06   -2.24872E-06   -0.00000E+00  
  20.2     X     -8.38251E+00   -8.23076E+00   -8.01358E+00   -7.73551E+00   -7.33965E+00   -6.81858E+00   -6.18121E+00   -5.38423E+00   -4.45031E+00   -3.44642E+00   -2.44112E+00   -1.56117E+00   -8.88843E-01   -4.45700E-01   -1.93716E-01   -6.99780E-02   -1.89713E-02   -3.22975E-03   -3.02399E-04   -7.62186E-06   -2.90351E-06    1.48814E-06   -1.18118E-06    4.91893E-07   -5.56131E-07    9.98773E-08   -3.12021E-07   -5.45684E-08   -2.14143E-07   -1.09231E-07   -1.92534E-07   -0.00000E+00  
  20.2     Y     -7.48471E-02   -7.35533E-02   -7.17277E-02   -6.94203E-02   -6.61503E-02   -6.18541E-02   -5.66016E-02   -5.00237E-02   -4.22695E-02   -3.38161E-02   -2.51178E-02   -1.71260E-02   -1.05518E-02   -5.75495E-03   -2.69139E-03   -1.01821E-03   -2.81087E-04   -4.79513E-05   -4.46798E-06   -8.20929E-08   -2.03622E-08    5.00135E-08    7.96552E-09    3.48200E-08    1.76302E-08    2.87502E-08    2.21297E-08    2.24938E-08    2.18273E-08    2.12514E-08    1.78497E-08   -0.00000E+00  
  20.2     Z     -3.48923E+01   -3.43867E+01   -3.36602E+01   -3.27252E+01   -3.13842E+01   -2.95994E+01   -2.73825E+01   -2.45494E+01   -2.11225E+01   -1.72679E+01   -1.31624E+01   -9.23907E+00   -5.87923E+00   -3.31832E+00   -1.60521E+00   -6.24205E-01   -1.75436E-01   -3.02079E-02   -2.84897E-03   -6.52388E-05   -3.18225E-05    1.62257E-05   -1.31107E-05    5.27112E-06   -6.24351E-06    9.68445E-07   -3.54810E-06   -7.18690E-07   -2.49396E-06   -1.36677E-06   -2.25921E-06   -0.00000E+00  
  22.7     X     -9.24360E+00   -9.07723E+00   -8.83910E+00   -8.53420E+00   -8.10008E+00   -7.52854E+00   -6.82924E+00   -5.95432E+00   -4.92814E+00   -3.82342E+00   -2.71477E+00   -1.74136E+00   -9.94794E-01   -5.00519E-01   -2.18189E-01   -7.89777E-02   -2.14344E-02   -3.64989E-03   -3.42156E-04   -8.47955E-06   -3.44553E-06    1.70653E-06   -1.42845E-06    5.35595E-07   -6.94638E-07    7.61474E-08   -4.05358E-07   -1.03350E-07   -2.92832E-07   -1.57580E-07   -2.43843E-07   -0.00000E+00  
  22.7     Y     -4.45319E-02   -4.39310E-02   -4.30995E-02   -4.20627E-02   -4.05939E-02   -3.86505E-02   -3.62394E-02   -3.31407E-02   -2.93185E-02   -2.48467E-02   -1.97815E-02   -1.45219E-02   -9.60373E-03   -5.55509E-03   -2.71159E-03   -1.05192E-03   -2.93924E-04   -5.02537E-05   -4.73187E-06   -5.73923E-08   -3.46151E-08    6.54628E-08    4.33099E-09    4.27088E-08    1.78891E-08    3.40046E-08    2.62022E-08    2.70877E-08    2.28758E-08    1.96613E-08    1.24057E-08   -0.00000E+00  
  22.7     Z     -3.31821E+01   -3.27089E+01   -3.20288E+01   -3.11532E+01   -2.98966E+01   -2.82227E+01   -2.61408E+01   -2.34758E+01   -2.02444E+01   -1.65976E+01   -1.26970E+01   -8.94897E+00   -5.71913E+00   -3.24070E+00   -1.57251E+00   -6.12649E-01   -1.72337E-01   -2.96812E-02   -2.80008E-03   -6.37547E-05   -3.14778E-05    1.60879E-05   -1.29598E-05    5.24103E-06   -6.15920E-06    9.83950E-07   -3.48844E-06   -6.84082E-07   -2.43779E-06   -1.32390E-06   -2.22415E-06   -0.00000E+00  
  25.2     X     -9.94970E+00   -9.77107E+00   -9.51537E+00   -9.18797E+00   -8.72179E+00   -8.10802E+00   -7.35693E+00   -6.41700E+00   -5.31412E+00   -4.12607E+00   -2.93266E+00   -1.88346E+00   -1.07745E+00   -5.42840E-01   -2.36914E-01   -8.58230E-02   -2.33022E-02   -3.96826E-03   -3.72140E-04   -9.09075E-06   -3.75779E-06    1.93228E-06   -1.53135E-06    6.39876E-07   -7.18622E-07    1.36247E-07   -3.96678E-07   -6.18074E-08   -2.71670E-07   -1.30789E-07   -2.37195E-07   -0.00000E+00  
  25.2     Y     -1.55329E-01   -1.52473E-01   -1.48421E-01   -1.43273E-01   -1.35972E-01   -1.26394E-01   -1.14718E-01   -1.00172E-01   -8.31808E-02   -6.49423E-02   -4.66302E-02   -3.04478E-02   -1.78355E-02   -9.24510E-03   -4.14396E-03   -1.52725E-03   -4.17044E-04   -7.10413E-05   -6.60923E-06   -1.53030E-07   -3.77012E-08    5.08890E-08   -2.08878E-09    3.21553E-08    1.03302E-08    2.49611E-08    1.73051E-08    1.44547E-08    9.85379E-09    1.10730E-08    8.62710E-09   -0.00000E+00  
  25.2     Z     -3.26199E+01   -3.21584E+01   -3.14950E+01   -3.06407E+01   -2.94143E+01   -2.77799E+01   -2.57457E+01   -2.31396E+01   -1.99757E+01   -1.63990E+01   -1.25653E+01   -8.87193E+00   -5.68006E+00   -3.22362E+00   -1.56607E+00   -6.10560E-01   -1.71803E-01   -2.95914E-02   -2.79220E-03   -6.33639E-05   -3.15993E-05    1.60853E-05   -1.30382E-05    5.21101E-06   -6.21850E-06    9.43584E-07   -3.54024E-06   -7.27319E-07   -2.48317E-06   -1.35229E-06   -2.24603E-06   -0.00000E+00  
  27.7     X     -1.07335E+01   -1.05417E+01   -1.02671E+01   -9.91553E+00   -9.41492E+00   -8.75573E+00   -7.94886E+00   -6.93872E+00   -5.75255E+00   -4.47319E+00   -3.18576E+00   -2.05095E+00   -1.17642E+00   -5.94264E-01   -2.59944E-01   -9.43086E-02   -2.56268E-02   -4.36479E-03   -4.09692E-04   -9.83853E-06   -4.25724E-06    2.18154E-06   -1.74124E-06    7.16997E-07   -8.25386E-07    1.38003E-07   -4.62464E-07   -8.78869E-08   -3.25913E-07   -1.72611E-07   -2.82229E-07   -0.00000E+00  
  27.7     Y      5.96712E-02    5.87345E-02    5.73517E-02    5.55390E-02    5.29249E-02    4.94397E-02    4.51100E-02    3.95897E-02    3.29635E-02    2.56425E-02    1.81180E-02    1.13952E-02    6.24879E-03    2.95068E-03    1.19808E-03    4.11925E-04    1.10161E-04    1.87358E-05    1.83359E-06    3.10845E-08    5.06307E-08   -4.66312E-09    2.97772E-08    8.81750E-09    2.27047E-08    1.36817E-08    2.12004E-08    1.65085E-08    2.31129E-08    1.57000E-08    1.21390E-09   -0.00000E+00  
  27.7     Z     -3.18449E+01   -3.13999E+01   -3.07602E+01   -2.99360E+01   -2.87521E+01   -2.71733E+01   -2.52063E+01   -2.26827E+01   -1.96127E+01   -1.61332E+01   -1.23916E+01   -8.77242E+00   -5.63120E+00   -3.20319E+00   -1.55879E+00   -6.08326E-01   -1.71252E-01   -2.94992E-02   -2.78429E-03   -6.27460E-05   -3.17296E-05    1.62176E-05   -1.30726E-05    5.28043E-06   -6.21797E-06    9.81419E-07   -3.53001E-06   -7.02793E-07   -2.47706E-06   -1.36186E-06   -2.26220E-06   -0.00000E+00  
