Name:B X_Dim:120 Y_Dim:600 Conductance:1000.0

### Channel Times ###
      Start      End
0   -1.9505  -1.9495
1   -1.8505  -1.8495
2   -1.7505  -1.7495
3   -1.6505  -1.6495
4   -1.5505  -1.5495
5   -1.4500  -1.4490
6   -1.3505  -1.3495
7   -1.2505  -1.2495
8   -1.1505  -1.1495
9   -1.0505  -1.0495
10  -0.9505  -0.9495
11  -0.8505  -0.8495
12  -0.7505  -0.7495
13  -0.6505  -0.6495
14  -0.5505  -0.5495
15  -0.4505  -0.4495
16  -0.3505  -0.3495
17  -0.2505  -0.2495
18  -0.1505  -0.1495
19  -0.0505  -0.0495
20   0.0250   0.0260
21   0.0545   0.0555
22   0.0695   0.0705
23   0.0945   0.0955
24   0.1295   0.1305
25   0.1745   0.1755
26   0.2345   0.2355
27   0.3145   0.3155
28   0.4195   0.4205
29   0.5595   0.5605
30   0.7445   0.7455
31   0.9895   0.9905
32   1.3145   1.3155
33   1.7445   1.7455
34   2.3145   2.3155
35   3.0745   3.0755
36   4.0845   4.0855
37   5.4245   5.4255
38   7.2045   7.2055
39   9.5695   9.5705
40  12.6595  12.6605
41  22.7295  22.7305
42  39.3945  39.3955
43  48.1145  48.1155

### Data ###
 Station Component         0         1         2         3         4            5            6            7            8            9           10           11           12           13           14           15           16           17           18           19         20         21         22         23         24         25         26         27         28         29         30         31         32         33         34         35         36         37         38         39        40        41        42        43
  -400.0         X  0.017229  0.017129  0.017030  0.016932  0.016834     3.981550     3.947970     3.914640     3.881720     3.849210     3.817090     3.785370     3.754030     3.723060     3.692470     3.662240     3.632370     3.602850     3.573670     3.544830  -0.450020  -0.448386  -0.447559  -0.446185  -0.444273  -0.441832  -0.438609  -0.434366  -0.428890  -0.421748  -0.412580  -0.400893  -0.386139  -0.367837  -0.345509  -0.318751  -0.287696  -0.252913  -0.215388  -0.176602 -0.138874 -0.069252 -0.024834 -0.014888
  -398.0         X  0.017393  0.017293  0.017193  0.017094  0.016995     4.021880     3.987940     3.954260     3.920990     3.888140     3.855690     3.823630     3.791970     3.760680     3.729770     3.699220     3.669040     3.639200     3.609720     3.580580  -0.454745  -0.453094  -0.452258  -0.450870  -0.448937  -0.446470  -0.443212  -0.438923  -0.433388  -0.426169  -0.416903  -0.405089  -0.390177  -0.371678  -0.349111  -0.322066  -0.290679  -0.255524  -0.217600  -0.178405 -0.140281 -0.069940 -0.025074 -0.015031
  -396.0         X  0.017560  0.017458  0.017357  0.017257  0.017157     4.062750     4.028460     3.994420     3.960810     3.927610     3.894820     3.862420     3.830420     3.798810     3.767570     3.736700     3.706200     3.676060     3.646270     3.616820  -0.459538  -0.457869  -0.457024  -0.455621  -0.453667  -0.451173  -0.447880  -0.443545  -0.437950  -0.430653  -0.421287  -0.409346  -0.394272  -0.375574  -0.352764  -0.325427  -0.293703  -0.258172  -0.219844  -0.180232 -0.141707 -0.070636 -0.025318 -0.015175
  -394.0         X  0.017728  0.017626  0.017524  0.017423  0.017322     4.104190     4.069540     4.035140     4.001170     3.967620     3.934480     3.901750     3.869410     3.837460     3.805890     3.774700     3.743880     3.713420     3.683310     3.653560  -0.464400  -0.462713  -0.461859  -0.460440  -0.458465  -0.455944  -0.452615  -0.448233  -0.442577  -0.435201  -0.425733  -0.413663  -0.398426  -0.379525  -0.356468  -0.328836  -0.296770  -0.260857  -0.222119  -0.182085 -0.143153 -0.071342 -0.025565 -0.015322
  -392.0         X  0.017899  0.017796  0.017693  0.017591  0.017489     4.146200     4.111180     4.076420     4.042090     4.008180     3.974700     3.941610     3.908930     3.876650     3.844750     3.813220     3.782080     3.751290     3.720870     3.690800  -0.469331  -0.467626  -0.466762  -0.465328  -0.463332  -0.460783  -0.457418  -0.452988  -0.447271  -0.439814  -0.430243  -0.418041  -0.402639  -0.383533  -0.360225  -0.332294  -0.299881  -0.263580  -0.224425  -0.183964 -0.144619 -0.072057 -0.025815 -0.015470
  -390.0         X  0.018072  0.017968  0.017864  0.017761  0.017658     4.188800     4.153400     4.118270     4.083580     4.049310     4.015460     3.982030     3.949000     3.916370     3.884130     3.852280     3.820800     3.789690     3.758940     3.728550  -0.474334  -0.472610  -0.471737  -0.470287  -0.468269  -0.465692  -0.462290  -0.457812  -0.452032  -0.444494  -0.434819  -0.422483  -0.406913  -0.387598  -0.364036  -0.335801  -0.303035  -0.266342  -0.226764  -0.185869 -0.146105 -0.072782 -0.026068 -0.015620
  -388.0         X  0.018247  0.018142  0.018037  0.017933  0.017829     4.231980     4.196210     4.160700     4.125640     4.091010     4.056800     4.023010     3.989630     3.956650     3.924070     3.891870     3.860060     3.828620     3.797550     3.766830  -0.479409  -0.477666  -0.476783  -0.475317  -0.473277  -0.470672  -0.467233  -0.462705  -0.456862  -0.449241  -0.439460  -0.426989  -0.411248  -0.391721  -0.367902  -0.339358  -0.306235  -0.269142  -0.229137  -0.187801 -0.147611 -0.073517 -0.026325 -0.015772
  -386.0         X  0.018425  0.018319  0.018213  0.018107  0.018003     4.275770     4.239610     4.203730     4.168290     4.133280     4.098710     4.064560     4.030820     3.997490     3.964560     3.932020     3.899860     3.868090     3.836680     3.805640  -0.484557  -0.482795  -0.481903  -0.480421  -0.478358  -0.475725  -0.472247  -0.467670  -0.461762  -0.454057  -0.444168  -0.431560  -0.415645  -0.395904  -0.371823  -0.342966  -0.309481  -0.271983  -0.231542  -0.189760 -0.149139 -0.074262 -0.026585 -0.015927
  -384.0         X  0.018605  0.018497  0.018390  0.018284  0.018179     4.320170     4.283630     4.247350     4.211530     4.176150     4.141210     4.106690     4.072590     4.038900     4.005620     3.972730     3.940230     3.908110     3.876370     3.844990  -0.489781  -0.487999  -0.487097  -0.485599  -0.483513  -0.480851  -0.477335  -0.472707  -0.466733  -0.458943  -0.448945  -0.436197  -0.420107  -0.400148  -0.375801  -0.346626  -0.312773  -0.274865  -0.233982  -0.191746 -0.150688 -0.075017 -0.026848 -0.016083
  -382.0         X  0.018787  0.018679  0.018571  0.018463  0.018357     4.365200     4.328260     4.291590     4.255380     4.219620     4.184300     4.149410     4.114940     4.080890     4.047250     4.014000     3.981150     3.948690     3.916610     3.884900  -0.495081  -0.493280  -0.492367  -0.490852  -0.488743  -0.486051  -0.482497  -0.477817  -0.471777  -0.463901  -0.453791  -0.440902  -0.424634  -0.404453  -0.379837  -0.350339  -0.316113  -0.277787  -0.236457  -0.193761 -0.152259 -0.075782 -0.027115 -0.016241
  -380.0         X  0.018972  0.018862  0.018753  0.018645  0.018537     4.410860     4.373520     4.336460     4.299860     4.263710     4.228000     4.192730     4.157890     4.123470     4.089460     4.055860     4.022660     3.989840     3.957410     3.925360  -0.500459  -0.498638  -0.497715  -0.496183  -0.494051  -0.491329  -0.487734  -0.483002  -0.476895  -0.468931  -0.458709  -0.445676  -0.429226  -0.408821  -0.383931  -0.354107  -0.319501  -0.280752  -0.238968  -0.195804 -0.153852 -0.076558 -0.027385 -0.016401
  -378.0         X  0.019159  0.019048  0.018938  0.018828  0.018720     4.457170     4.419420     4.381960     4.344960     4.308410     4.272320     4.236670     4.201450     4.166650     4.132280     4.098310     4.064740     4.031570     3.998790     3.966390  -0.505917  -0.504074  -0.503142  -0.501593  -0.499436  -0.496684  -0.493049  -0.488264  -0.482089  -0.474035  -0.463698  -0.450520  -0.433886  -0.413253  -0.388086  -0.357929  -0.322938  -0.283760  -0.241514  -0.197877 -0.155467 -0.077345 -0.027660 -0.016564
  -376.0         X  0.019349  0.019237  0.019125  0.019015  0.018905     4.504140     4.465980     4.428100     4.390700     4.353760     4.317270     4.281230     4.245620     4.210450     4.175700     4.141360     4.107430     4.073900     4.040760     4.008000  -0.511455  -0.509592  -0.508648  -0.507082  -0.504901  -0.502118  -0.498442  -0.493604  -0.487359  -0.479215  -0.468762  -0.455436  -0.438615  -0.417751  -0.392301  -0.361807  -0.326426  -0.286811  -0.244097  -0.199979 -0.157106 -0.078143 -0.027937 -0.016728
  -374.0         X  0.019541  0.019428  0.019315  0.019203  0.019092     4.551780     4.513200     4.474900     4.437090     4.399740     4.362860     4.326420     4.290430     4.254870     4.219730     4.185020     4.150720     4.116820     4.083320     4.050210  -0.517075  -0.515191  -0.514237  -0.512653  -0.510448  -0.507633  -0.503916  -0.499022  -0.492707  -0.484471  -0.473900  -0.460424  -0.443414  -0.422314  -0.396579  -0.365742  -0.329964  -0.289907  -0.246718  -0.202112 -0.158768 -0.078951 -0.028219 -0.016895
  -372.0         X  0.019735  0.019621  0.019508  0.019395  0.019282     4.600100     4.561090     4.522380     4.484150     4.446390     4.409100     4.372260     4.335870     4.299920     4.264400     4.229310     4.194630     4.160360     4.126490     4.093010  -0.522779  -0.520874  -0.519909  -0.518307  -0.516077  -0.513230  -0.509471  -0.504522  -0.498135  -0.489806  -0.479115  -0.465486  -0.448284  -0.426946  -0.400920  -0.369735  -0.333555  -0.293048  -0.249377  -0.204275 -0.160453 -0.079771 -0.028504 -0.017064
  -370.0         X  0.019932  0.019817  0.019702  0.019588  0.019475     4.649110     4.609670     4.570530     4.531880     4.493700     4.456000     4.418760     4.381960     4.345620     4.309710     4.274220     4.239160     4.204520     4.170270     4.136430  -0.528569  -0.526642  -0.525666  -0.524046  -0.521790  -0.518911  -0.515109  -0.510104  -0.503644  -0.495221  -0.484408  -0.470624  -0.453226  -0.431646  -0.405325  -0.373787  -0.337198  -0.296236  -0.252074  -0.206470 -0.162163 -0.080603 -0.028794 -0.017236
  -368.0         X  0.020132  0.020016  0.019900  0.019785  0.019670     4.698830     4.658960     4.619380     4.580300     4.541700     4.503580     4.465920     4.428720     4.391970     4.355660     4.319790     4.284340     4.249310     4.214690     4.180470  -0.534445  -0.532496  -0.531510  -0.529871  -0.527589  -0.524677  -0.520832  -0.515769  -0.509236  -0.500716  -0.489780  -0.475839  -0.458243  -0.436417  -0.409796  -0.377900  -0.340896  -0.299470  -0.254811  -0.208696 -0.163897 -0.081446 -0.029087 -0.017409
  -366.0         X  0.020335  0.020217  0.020100  0.019984  0.019868     4.749270     4.708950     4.668940     4.629420     4.590390     4.551840     4.513770     4.476150     4.439000     4.402280     4.366010     4.330170     4.294750     4.259740     4.225150  -0.540411  -0.538439  -0.537441  -0.535784  -0.533476  -0.530530  -0.526641  -0.521520  -0.514912  -0.506295  -0.495233  -0.481133  -0.463335  -0.441259  -0.414334  -0.382073  -0.344648  -0.302752  -0.257589  -0.210955 -0.165657 -0.082301 -0.029384 -0.017585
  -364.0         X  0.020540  0.020421  0.020303  0.020185  0.020069     4.800450     4.759680     4.719210     4.679250     4.639790     4.600810     4.562310     4.524280     4.486700     4.449580     4.412900     4.376660     4.340850     4.305450     4.270470  -0.546466  -0.544472  -0.543463  -0.541786  -0.539451  -0.536472  -0.532538  -0.527359  -0.520674  -0.511957  -0.500769  -0.486506  -0.468503  -0.446174  -0.418939  -0.386310  -0.348457  -0.306083  -0.260407  -0.213248 -0.167442 -0.083168 -0.029686 -0.017764
  -362.0         X  0.020748  0.020628  0.020509  0.020390  0.020272     4.852370     4.811140     4.770220     4.729810     4.689900     4.650490     4.611560     4.573100     4.535100     4.497560     4.460480     4.423830     4.387610     4.351820     4.316450  -0.552614  -0.550597  -0.549576  -0.547879  -0.545518  -0.542504  -0.538524  -0.533285  -0.526524  -0.517706  -0.506388  -0.491960  -0.473750  -0.451163  -0.423615  -0.390610  -0.352322  -0.309464  -0.263267  -0.215573 -0.169253 -0.084048 -0.029991 -0.017944
  -360.0         X  0.020959  0.020838  0.020717  0.020597  0.020478     4.905050     4.863350     4.821970     4.781110     4.740750     4.700890     4.661520     4.622630     4.584210     4.546250     4.508740     4.471680     4.435060     4.398870     4.363100  -0.558856  -0.556815  -0.555782  -0.554066  -0.551677  -0.548628  -0.544602  -0.539302  -0.532462  -0.523542  -0.512093  -0.497498  -0.479076  -0.456228  -0.428361  -0.394975  -0.356246  -0.312895  -0.266170  -0.217934 -0.171091 -0.084940 -0.030301 -0.018128
  -358.0         X  0.021173  0.021050  0.020928  0.020807  0.020687     4.958510     4.916340     4.874490     4.833160     4.792350     4.752040     4.712220     4.672890     4.634030     4.595650     4.557720     4.520240     4.483200     4.446600     4.410430  -0.565193  -0.563129  -0.562083  -0.560348  -0.557931  -0.554846  -0.550773  -0.545412  -0.538492  -0.529468  -0.517885  -0.503120  -0.484484  -0.461370  -0.433179  -0.399406  -0.360229  -0.316378  -0.269116  -0.220329 -0.172955 -0.085845 -0.030615 -0.018313
  -356.0         X  0.021390  0.021266  0.021143  0.021020  0.020898     5.012750     4.970100     4.927780     4.885980     4.844700     4.803940     4.763670     4.723890     4.684590     4.645770     4.607410     4.569510     4.532050     4.495040     4.458450  -0.571628  -0.569539  -0.568482  -0.566726  -0.564281  -0.561160  -0.557039  -0.551615  -0.544614  -0.535484  -0.523766  -0.508829  -0.489975  -0.466591  -0.438071  -0.403904  -0.364272  -0.319913  -0.272106  -0.222760 -0.174847 -0.086762 -0.030933 -0.018502
  -354.0         X  0.021610  0.021484  0.021360  0.021236  0.021113     5.067800     5.024660     4.981850     4.939580     4.897830     4.856600     4.815870     4.775640     4.735900     4.696630     4.657840     4.619500     4.581620     4.544180     4.507190  -0.578162  -0.576049  -0.574979  -0.573202  -0.570728  -0.567571  -0.563402  -0.557914  -0.550831  -0.541594  -0.529738  -0.514625  -0.495550  -0.471891  -0.443038  -0.408471  -0.368377  -0.323502  -0.275141  -0.225227 -0.176767 -0.087693 -0.031256 -0.018692
  -352.0         X  0.021832  0.021706  0.021580  0.021455  0.021330     5.123660     5.080030     5.036730     4.993980     4.951750     4.910050     4.868850     4.828160     4.787960     4.748250     4.709010     4.670240     4.631920     4.594060     4.556640  -0.584798  -0.582660  -0.581577  -0.579779  -0.577276  -0.574082  -0.569863  -0.564310  -0.557144  -0.547798  -0.535802  -0.520511  -0.501211  -0.477274  -0.448081  -0.413109  -0.372544  -0.327145  -0.278222  -0.227731 -0.178716 -0.088638 -0.031583 -0.018886
  -350.0         X  0.022058  0.021930  0.021803  0.021676  0.021551     5.180360     5.136230     5.092430     5.049180     5.006470     4.964290     4.922620     4.881460     4.840800     4.800630     4.760940     4.721730     4.682970     4.644680     4.606830  -0.591537  -0.589373  -0.588278  -0.586459  -0.583926  -0.580694  -0.576425  -0.570806  -0.563555  -0.554098  -0.541960  -0.526488  -0.506960  -0.482739  -0.453202  -0.417817  -0.376775  -0.330844  -0.281350  -0.230273 -0.180693 -0.089596 -0.031915 -0.019082
  -348.0         X  0.022287  0.022158  0.022029  0.021901  0.021774     5.237910     5.193270     5.148960     5.105220     5.062010     5.019340     4.977190     4.935560     4.894430     4.853800     4.813650     4.773980     4.734780     4.696050     4.657760  -0.598381  -0.596192  -0.595083  -0.593243  -0.590680  -0.587409  -0.583090  -0.577404  -0.570066  -0.560496  -0.548215  -0.532558  -0.512798  -0.488290  -0.458402  -0.422599  -0.381072  -0.334599  -0.284525  -0.232853 -0.182701 -0.090568 -0.032252 -0.019281
  -346.0         X  0.022519  0.022388  0.022259  0.022129  0.022001     5.296320     5.251160     5.206340     5.162090     5.118380     5.075220     5.032580     4.990470     4.948860     4.907760     4.867150     4.827020     4.787370     4.748190     4.709460  -0.605333  -0.603117  -0.601996  -0.600133  -0.597539  -0.594229  -0.589858  -0.584105  -0.576679  -0.566995  -0.554567  -0.538723  -0.518727  -0.493927  -0.463683  -0.427454  -0.385435  -0.338413  -0.287749  -0.235472 -0.184738 -0.091555 -0.032593 -0.019483
  -344.0         X  0.022754  0.022622  0.022491  0.022360  0.022231     5.355610     5.309930     5.264590     5.219820     5.175610     5.131940     5.088810     5.046200     5.004110     4.962530     4.921450     4.880860     4.840750     4.801110     4.761930  -0.612394  -0.610152  -0.609017  -0.607132  -0.604507  -0.601157  -0.596734  -0.590911  -0.583396  -0.573596  -0.561019  -0.544985  -0.524749  -0.499653  -0.469047  -0.432385  -0.389865  -0.342285  -0.291022  -0.238131 -0.186806 -0.092556 -0.032940 -0.019687
  -342.0         X  0.022993  0.022860  0.022727  0.022595  0.022464     5.415810     5.369590     5.323720     5.278420     5.233690     5.189520     5.145880     5.102780     5.060200     5.018130     4.976570     4.935510     4.894930     4.854830     4.815200  -0.619567  -0.617298  -0.616149  -0.614241  -0.611585  -0.608195  -0.603718  -0.597825  -0.590220  -0.580302  -0.567572  -0.551346  -0.530867  -0.505468  -0.474495  -0.437393  -0.394365  -0.346217  -0.294346  -0.240831 -0.188905 -0.093571 -0.033291 -0.019895
  -340.0         X  0.023235  0.023100  0.022966  0.022833  0.022700     5.476910     5.430150     5.383750     5.337920     5.292660     5.247970     5.203820     5.160210     5.117140     5.074580     5.032530     4.990980     4.949930     4.909360     4.869260  -0.626854  -0.624558  -0.623395  -0.621464  -0.618775  -0.615344  -0.610813  -0.604849  -0.597151  -0.587113  -0.574230  -0.557807  -0.537081  -0.511375  -0.480029  -0.442480  -0.398935  -0.350211  -0.297721  -0.243572 -0.191036 -0.094602 -0.033647 -0.020105
  -338.0         X  0.023481  0.023344  0.023208  0.023074  0.022940     5.538960     5.491640     5.444690     5.398320     5.352530     5.307310     5.262640     5.218520     5.174940     5.131880     5.089340     5.047300     5.005770     4.964720     4.924150  -0.634258  -0.631933  -0.630756  -0.628802  -0.626081  -0.622608  -0.618022  -0.611985  -0.604194  -0.594034  -0.580994  -0.564371  -0.543393  -0.517376  -0.485650  -0.447647  -0.403577  -0.354266  -0.301148  -0.246356 -0.193200 -0.095648 -0.034008 -0.020319
  -336.0         X  0.023729  0.023592  0.023454  0.023318  0.023183     5.601950     5.554070     5.506560     5.459650     5.413320     5.367560     5.322360     5.277720     5.233620     5.190060     5.147010     5.104480     5.062460     5.020920     4.979880  -0.641780  -0.639427  -0.638235  -0.636257  -0.633503  -0.629987  -0.625345  -0.619234  -0.611348  -0.601064  -0.587865  -0.571040  -0.549806  -0.523472  -0.491360  -0.452896  -0.408291  -0.358386  -0.304629  -0.249182 -0.195397 -0.096710 -0.034375 -0.020535
  -334.0         X  0.023982  0.023842  0.023704  0.023566  0.023429     5.665910     5.617460     5.569390     5.521920     5.475030     5.428730     5.383000     5.337830     5.293210     5.249120     5.205570     5.162540     5.120010     5.077990     5.036460  -0.649423  -0.647041  -0.645835  -0.643832  -0.641044  -0.637486  -0.632786  -0.626601  -0.618618  -0.608208  -0.594847  -0.577816  -0.556322  -0.529666  -0.497161  -0.458228  -0.413081  -0.362570  -0.308165  -0.252052 -0.197627 -0.097787 -0.034747 -0.020754
  -332.0         X  0.024238  0.024097  0.023957  0.023818  0.023679     5.730860     5.681830     5.633180     5.585140     5.537700     5.490850     5.444570     5.398860     5.353710     5.309100     5.265030     5.221480     5.178450     5.135930     5.093910  -0.657189  -0.654778  -0.653557  -0.651530  -0.648707  -0.645105  -0.640348  -0.634086  -0.626005  -0.615467  -0.601941  -0.584701  -0.562942  -0.535959  -0.503056  -0.463646  -0.417946  -0.366820  -0.311755  -0.254967 -0.199892 -0.098881 -0.035124 -0.020977
