Name:C X_Dim:150 Y_Dim:150 Conductance:10000.0

### Channel Times ###
      Start      End
0   -1.9505  -1.9495
1   -1.8505  -1.8495
2   -1.7505  -1.7495
3   -1.6505  -1.6495
4   -1.5505  -1.5495
5   -1.4500  -1.4490
6   -1.3505  -1.3495
7   -1.2505  -1.2495
8   -1.1505  -1.1495
9   -1.0505  -1.0495
10  -0.9505  -0.9495
11  -0.8505  -0.8495
12  -0.7505  -0.7495
13  -0.6505  -0.6495
14  -0.5505  -0.5495
15  -0.4505  -0.4495
16  -0.3505  -0.3495
17  -0.2505  -0.2495
18  -0.1505  -0.1495
19  -0.0505  -0.0495
20   0.0250   0.0260
21   0.0545   0.0555
22   0.0695   0.0705
23   0.0945   0.0955
24   0.1295   0.1305
25   0.1745   0.1755
26   0.2345   0.2355
27   0.3145   0.3155
28   0.4195   0.4205
29   0.5595   0.5605
30   0.7445   0.7455
31   0.9895   0.9905
32   1.3145   1.3155
33   1.7445   1.7455
34   2.3145   2.3155
35   3.0745   3.0755
36   4.0845   4.0855
37   5.4245   5.4255
38   7.2045   7.2055
39   9.5695   9.5705
40  12.6595  12.6605
41  22.7295  22.7305
42  39.3945  39.3955
43  48.1145  48.1155

### Data ###
 Station Component          0          1          2          3          4            5            6            7            8            9           10           11           12           13           14           15           16           17           18           19          20          21          22          23          24          25          26          27          28          29          30          31          32          33          34          35          36          37          38          39          40         41         42            43
  -400.0         X   0.037566   0.037523   0.037481   0.037438   0.037396     4.490060     4.485000     4.479930     4.474880     4.469830     4.464810     4.459800     4.454800     4.449820     4.444860     4.439900     4.434970     4.430040     4.425140     4.420240   -0.037417   -0.037364   -0.037337   -0.037293   -0.037231   -0.037151   -0.037046   -0.036906   -0.036723   -0.036482   -0.036168   -0.035758   -0.035225   -0.034541   -0.033666   -0.032554   -0.031168   -0.029474   -0.027451   -0.025104   -0.022515  -0.016612  -0.011269 -9.539580e-03
  -398.0         X   0.037990   0.037946   0.037903   0.037860   0.037818     4.540300     4.535180     4.530050     4.524940     4.519840     4.514760     4.509690     4.504640     4.499600     4.494580     4.489570     4.484580     4.479600     4.474630     4.469680   -0.037848   -0.037795   -0.037768   -0.037723   -0.037660   -0.037580   -0.037473   -0.037331   -0.037147   -0.036903   -0.036585   -0.036170   -0.035632   -0.034939   -0.034054   -0.032929   -0.031527   -0.029814   -0.027767   -0.025393   -0.022774  -0.016803  -0.011399 -9.648660e-03
  -396.0         X   0.038419   0.038376   0.038332   0.038289   0.038245     4.591280     4.586100     4.580920     4.575750     4.570590     4.565450     4.560320     4.555210     4.550120     4.545040     4.539970     4.534920     4.529880     4.524860     4.519860   -0.038286   -0.038232   -0.038205   -0.038160   -0.038096   -0.038015   -0.037907   -0.037763   -0.037577   -0.037330   -0.037008   -0.036589   -0.036044   -0.035343   -0.034448   -0.033310   -0.031892   -0.030159   -0.028088   -0.025687   -0.023037  -0.016997  -0.011529 -9.759400e-03
  -394.0         X   0.038856   0.038811   0.038768   0.038724   0.038680     4.643020     4.637780     4.632530     4.627300     4.622090     4.616890     4.611700     4.606530     4.601380     4.596240     4.591120     4.586010     4.580920     4.575840     4.570770   -0.038731   -0.038677   -0.038649   -0.038603   -0.038539   -0.038456   -0.038347   -0.038202   -0.038013   -0.037764   -0.037438   -0.037014   -0.036463   -0.035754   -0.034848   -0.033697   -0.032262   -0.030509   -0.028414   -0.025984   -0.023305  -0.017194  -0.011662 -9.871810e-03
  -392.0         X   0.039298   0.039254   0.039209   0.039165   0.039120     4.695520     4.690230     4.684920     4.679630     4.674350     4.669090     4.663850     4.658620     4.653410     4.648210     4.643030     4.637860     4.632710     4.627570     4.622450   -0.039183   -0.039128   -0.039100   -0.039053   -0.038988   -0.038905   -0.038795   -0.038648   -0.038457   -0.038204   -0.037875   -0.037445   -0.036888   -0.036171   -0.035254   -0.034090   -0.032638   -0.030864   -0.028745   -0.026287   -0.023576  -0.017393  -0.011798 -9.985950e-03
  -390.0         X   0.039748   0.039703   0.039658   0.039613   0.039568     4.748820     4.743460     4.738090     4.732740     4.727400     4.722080     4.716770     4.711480     4.706210     4.700950     4.695710     4.690480     4.685270     4.680070     4.674890   -0.039642   -0.039586   -0.039558   -0.039510   -0.039445   -0.039360   -0.039249   -0.039100   -0.038907   -0.038651   -0.038318   -0.037884   -0.037319   -0.036594   -0.035667   -0.034489   -0.033020   -0.031225   -0.029081   -0.026594   -0.023851  -0.017596  -0.011935 -1.010180e-02
  -388.0         X   0.040204   0.040158   0.040113   0.040067   0.040022     4.802910     4.797490     4.792050     4.786640     4.781240     4.775860     4.770490     4.765140     4.759810     4.754490     4.749180     4.743900     4.738620     4.733360     4.728120   -0.040107   -0.040051   -0.040022   -0.039975   -0.039908   -0.039823   -0.039710   -0.039560   -0.039364   -0.039106   -0.038768   -0.038329   -0.037758   -0.037024   -0.036086   -0.034894   -0.033408   -0.031592   -0.029423   -0.026906   -0.024131  -0.017802  -0.012074 -1.021950e-02
  -386.0         X   0.040667   0.040621   0.040575   0.040529   0.040483     4.857810     4.852330     4.846830     4.841350     4.835890     4.830450     4.825020     4.819600     4.814210     4.808830     4.803460     4.798110     4.792780     4.787460     4.782150   -0.040580   -0.040523   -0.040495   -0.040446   -0.040379   -0.040293   -0.040178   -0.040026   -0.039828   -0.039567   -0.039226   -0.038781   -0.038203   -0.037460   -0.036511   -0.035305   -0.033802   -0.031964   -0.029769   -0.027223   -0.024415  -0.018011  -0.012215 -1.033900e-02
  -384.0         X   0.041138   0.041091   0.041044   0.040998   0.040951     4.913540     4.907990     4.902430     4.896890     4.891370     4.885860     4.880360     4.874890     4.869430     4.863980     4.858560     4.853140     4.847750     4.842370     4.837000   -0.041061   -0.041003   -0.040974   -0.040925   -0.040857   -0.040770   -0.040654   -0.040500   -0.040300   -0.040035   -0.039690   -0.039240   -0.038656   -0.037904   -0.036943   -0.035723   -0.034202   -0.032342   -0.030121   -0.027545   -0.024703  -0.018224  -0.012359 -1.046030e-02
  -382.0         X   0.041615   0.041568   0.041521   0.041473   0.041426     4.970120     4.964500     4.958880     4.953270     4.947680     4.942110     4.936550     4.931010     4.925490     4.919980     4.914490     4.909010     4.903550     4.898110     4.892680   -0.041549   -0.041491   -0.041461   -0.041412   -0.041343   -0.041254   -0.041137   -0.040982   -0.040779   -0.040511   -0.040162   -0.039706   -0.039115   -0.038354   -0.037382   -0.036148   -0.034608   -0.032726   -0.030479   -0.027872   -0.024996  -0.018439  -0.012505 -1.058350e-02
  -380.0         X   0.042100   0.042052   0.042004   0.041957   0.041909     5.027550     5.021870     5.016180     5.010510     5.004850     4.999210     4.993590     4.987980     4.982390     4.976820     4.971260     4.965720     4.960200     4.954690     4.949200   -0.042045   -0.041986   -0.041956   -0.041906   -0.041836   -0.041747   -0.041628   -0.041471   -0.041266   -0.040995   -0.040641   -0.040180   -0.039582   -0.038812   -0.037828   -0.036579   -0.035021   -0.033117   -0.030842   -0.028204   -0.025294  -0.018659  -0.012653 -1.070870e-02
  -378.0         X   0.042592   0.042544   0.042495   0.042447   0.042399     5.085860     5.080120     5.074360     5.068620     5.062890     5.057190     5.051500     5.045830     5.040170     5.034530     5.028910     5.023300     5.017710     5.012140     5.006580   -0.042549   -0.042489   -0.042458   -0.042408   -0.042337   -0.042247   -0.042127   -0.041967   -0.041760   -0.041486   -0.041128   -0.040661   -0.040056   -0.039277   -0.038281   -0.037017   -0.035440   -0.033513   -0.031211   -0.028541   -0.025596  -0.018881  -0.012803 -1.083580e-02
  -376.0         X   0.043092   0.043043   0.042994   0.042945   0.042896     5.145070     5.139250     5.133420     5.127620     5.121820     5.116050     5.110290     5.104550     5.098830     5.093130     5.087440     5.081760     5.076110     5.070470     5.064840   -0.043060   -0.043000   -0.042969   -0.042918   -0.042846   -0.042755   -0.042633   -0.042472   -0.042262   -0.041985   -0.041622   -0.041150   -0.040537   -0.039749   -0.038741   -0.037462   -0.035866   -0.033916   -0.031586   -0.028884   -0.025903  -0.019107  -0.012956 -1.096490e-02
  -374.0         X   0.043599   0.043550   0.043500   0.043451   0.043402     5.205180     5.199290     5.193400     5.187520     5.181660     5.175820     5.169990     5.164180     5.158390     5.152620     5.146860     5.141120     5.135400     5.129690     5.124000   -0.043580   -0.043519   -0.043488   -0.043436   -0.043364   -0.043271   -0.043148   -0.042985   -0.042772   -0.042491   -0.042125   -0.041647   -0.041027   -0.040229   -0.039209   -0.037914   -0.036298   -0.034325   -0.031967   -0.029232   -0.026215  -0.019337  -0.013111 -1.109610e-02
  -372.0         X   0.044115   0.044065   0.044015   0.043965   0.043915     5.266220     5.260260     5.254300     5.248350     5.242420     5.236500     5.230610     5.224730     5.218870     5.213030     5.207200     5.201390     5.195600     5.189830     5.184070   -0.044108   -0.044046   -0.044015   -0.043962   -0.043889   -0.043795   -0.043671   -0.043506   -0.043291   -0.043006   -0.042635   -0.042152   -0.041524   -0.040716   -0.039684   -0.038373   -0.036738   -0.034740   -0.032354   -0.029586   -0.026532  -0.019570  -0.013269 -1.122930e-02
  -370.0         X   0.044638   0.044588   0.044537   0.044486   0.044436     5.328200     5.322170     5.316140     5.310120     5.304110     5.298130     5.292160     5.286220     5.280290     5.274370     5.268480     5.262600     5.256740     5.250890     5.245060   -0.044645   -0.044582   -0.044550   -0.044497   -0.044423   -0.044328   -0.044202   -0.044035   -0.043817   -0.043529   -0.043154   -0.042664   -0.042029   -0.041211   -0.040167   -0.038840   -0.037185   -0.035162   -0.032747   -0.029945   -0.026854  -0.019807  -0.013429 -1.136460e-02
  -368.0         X   0.045170   0.045119   0.045068   0.045016   0.044965     5.391150     5.385050     5.378940     5.372840     5.366770     5.360710     5.354680     5.348650     5.342650     5.336670     5.330700     5.324750     5.318820     5.312900     5.307010   -0.045190   -0.045127   -0.045094   -0.045041   -0.044966   -0.044870   -0.044742   -0.044573   -0.044352   -0.044061   -0.043681   -0.043185   -0.042542   -0.041714   -0.040657   -0.039314   -0.037638   -0.035592   -0.033147   -0.030310   -0.027182  -0.020048  -0.013592 -1.150210e-02
  -366.0         X   0.045710   0.045658   0.045606   0.045554   0.045503     5.455070     5.448900     5.442710     5.436550     5.430400     5.424270     5.418160     5.412070     5.405990     5.399930     5.393890     5.387870     5.381870     5.375880     5.369910   -0.045744   -0.045680   -0.045647   -0.045593   -0.045517   -0.045420   -0.045291   -0.045119   -0.044896   -0.044601   -0.044216   -0.043715   -0.043063   -0.042226   -0.041155   -0.039796   -0.038100   -0.036028   -0.033552   -0.030681   -0.027514  -0.020293  -0.013757 -1.164180e-02
  -364.0         X   0.046259   0.046206   0.046154   0.046101   0.046049     5.520000     5.513750     5.507490     5.501250     5.495020     5.488820     5.482630     5.476470     5.470320     5.464190     5.458080     5.451980     5.445900     5.439840     5.433800   -0.046307   -0.046242   -0.046209   -0.046154   -0.046078   -0.045979   -0.045848   -0.045675   -0.045449   -0.045150   -0.044761   -0.044253   -0.043594   -0.042745   -0.041662   -0.040285   -0.038568   -0.036471   -0.033965   -0.031058   -0.027852  -0.020542  -0.013925 -1.178380e-02
  -362.0         X   0.046816   0.046763   0.046710   0.046657   0.046604     5.585940     5.579620     5.573280     5.566960     5.560660     5.554380     5.548120     5.541880     5.535660     5.529450     5.523260     5.517090     5.510940     5.504810     5.498690   -0.046880   -0.046814   -0.046780   -0.046725   -0.046647   -0.046547   -0.046415   -0.046239   -0.046011   -0.045708   -0.045314   -0.044800   -0.044132   -0.043273   -0.042176   -0.040783   -0.039045   -0.036921   -0.034384   -0.031441   -0.028195  -0.020794  -0.014096 -1.192800e-02
  -360.0         X   0.047383   0.047329   0.047275   0.047221   0.047167     5.652920     5.646520     5.640100     5.633710     5.627330     5.620980     5.614640     5.608320     5.602020     5.595740     5.589480     5.583230     5.577000     5.570800     5.564610   -0.047462   -0.047395   -0.047361   -0.047305   -0.047226   -0.047125   -0.046991   -0.046813   -0.046581   -0.046275   -0.045876   -0.045356   -0.044680   -0.043810   -0.042700   -0.041289   -0.039529   -0.037379   -0.034810   -0.031831   -0.028545  -0.021051  -0.014270 -1.207460e-02
  -358.0         X   0.047958   0.047903   0.047849   0.047794   0.047740     5.720960     5.714480     5.707990     5.701510     5.695060     5.688620     5.682210     5.675810     5.669430     5.663080     5.656740     5.650410     5.644110     5.637830     5.631560   -0.048053   -0.047985   -0.047951   -0.047894   -0.047814   -0.047712   -0.047576   -0.047396   -0.047162   -0.046852   -0.046448   -0.045921   -0.045236   -0.044356   -0.043231   -0.041803   -0.040021   -0.037844   -0.035243   -0.032226   -0.028899  -0.021312  -0.014446 -1.222360e-02
  -356.0         X   0.048542   0.048487   0.048432   0.048376   0.048322     5.790080     5.783520     5.776950     5.770390     5.763860     5.757340     5.750850     5.744370     5.737920     5.731480     5.725060     5.718660     5.712280     5.705920     5.699570   -0.048654   -0.048586   -0.048551   -0.048493   -0.048412   -0.048309   -0.048171   -0.047989   -0.047752   -0.047438   -0.047029   -0.046495   -0.045802   -0.044911   -0.043772   -0.042326   -0.040521   -0.038317   -0.035684   -0.032629   -0.029260  -0.021578  -0.014625 -1.237500e-02
  -354.0         X   0.049136   0.049080   0.049024   0.048968   0.048912     5.860300     5.853660     5.847000     5.840370     5.833750     5.827160     5.820580     5.814030     5.807490     5.800970     5.794470     5.787990     5.781530     5.775090     5.768670   -0.049265   -0.049196   -0.049161   -0.049102   -0.049020   -0.048916   -0.048777   -0.048592   -0.048351   -0.048034   -0.047619   -0.047079   -0.046377   -0.045475   -0.044321   -0.042857   -0.041030   -0.038798   -0.036131   -0.033038   -0.029626  -0.021847  -0.014807 -1.252890e-02
  -352.0         X   0.049739   0.049683   0.049626   0.049570   0.049513     5.931640     5.924910     5.918180     5.911460     5.904760     5.898080     5.891430     5.884790     5.878170     5.871570     5.864990     5.858440     5.851890     5.845370     5.838870   -0.049886   -0.049816   -0.049781   -0.049721   -0.049639   -0.049532   -0.049391   -0.049205   -0.048961   -0.048640   -0.048219   -0.047672   -0.046962   -0.046048   -0.044880   -0.043397   -0.041547   -0.039286   -0.036586   -0.033454   -0.029999  -0.022122  -0.014993 -1.268530e-02
  -350.0         X   0.050353   0.050295   0.050238   0.050181   0.050124     6.004120     5.997310     5.990490     5.983690     5.976910     5.970150     5.963410     5.956690     5.949990     5.943310     5.936650     5.930000     5.923380     5.916780     5.910200   -0.050518   -0.050447   -0.050411   -0.050351   -0.050267   -0.050160   -0.050017   -0.049828   -0.049581   -0.049255   -0.048830   -0.048276   -0.047556   -0.046631   -0.045448   -0.043946   -0.042072   -0.039783   -0.037049   -0.033876   -0.030378  -0.022400  -0.015181 -1.284430e-02
  -348.0         X   0.050976   0.050917   0.050860   0.050801   0.050744     6.077770     6.070880     6.063970     6.057080     6.050220     6.043370     6.036550     6.029740     6.022960     6.016190     6.009450     6.002720     5.996020     5.989330     5.982670   -0.051160   -0.051088   -0.051052   -0.050991   -0.050906   -0.050797   -0.050653   -0.050461   -0.050211   -0.049881   -0.049451   -0.048890   -0.048161   -0.047223   -0.046026   -0.044504   -0.042607   -0.040288   -0.037519   -0.034306   -0.030763  -0.022684  -0.015372 -1.300590e-02
  -346.0         X   0.051609   0.051550   0.051491   0.051433   0.051374     6.152610     6.145630     6.138640     6.131660     6.124710     6.117780     6.110870     6.103980     6.097110     6.090260     6.083430     6.076620     6.069830     6.063060     6.056310   -0.051813   -0.051740   -0.051703   -0.051642   -0.051556   -0.051446   -0.051299   -0.051105   -0.050852   -0.050518   -0.050082   -0.049514   -0.048775   -0.047826   -0.046613   -0.045072   -0.043150   -0.040802   -0.037997   -0.034743   -0.031155  -0.022972  -0.015567 -1.317020e-02
  -344.0         X   0.052253   0.052193   0.052133   0.052074   0.052015     6.228660     6.221590     6.214510     6.207450     6.200410     6.193390     6.186390     6.179410     6.172460     6.165520     6.158610     6.151710     6.144830     6.137980     6.131140   -0.052477   -0.052404   -0.052366   -0.052304   -0.052217   -0.052105   -0.051957   -0.051760   -0.051504   -0.051166   -0.050724   -0.050148   -0.049400   -0.048439   -0.047210   -0.045650   -0.043703   -0.041325   -0.038484   -0.035188   -0.031553  -0.023265  -0.015765 -1.333730e-02
  -342.0         X   0.052907   0.052846   0.052786   0.052726   0.052666     6.305950     6.298790     6.291620     6.284470     6.277340     6.270230     6.263140     6.256080     6.249030     6.242010     6.235000     6.228020     6.221060     6.214120     6.207190   -0.053153   -0.053078   -0.053040   -0.052977   -0.052889   -0.052776   -0.052625   -0.052426   -0.052167   -0.051824   -0.051376   -0.050793   -0.050036   -0.049062   -0.047817   -0.046237   -0.044265   -0.041856   -0.038978   -0.035640   -0.031958  -0.023563  -0.015966 -1.350720e-02
  -340.0         X   0.053572   0.053511   0.053450   0.053389   0.053328     6.384500     6.377250     6.369990     6.362750     6.355530     6.348330     6.341150     6.333990     6.326860     6.319740     6.312650     6.305580     6.298530     6.291500     6.284490   -0.053840   -0.053764   -0.053726   -0.053662   -0.053572   -0.053458   -0.053306   -0.053104   -0.052841   -0.052494   -0.052040   -0.051450   -0.050682   -0.049696   -0.048435   -0.046834   -0.044837   -0.042396   -0.039481   -0.036100   -0.032370  -0.023866  -0.016170 -1.367990e-02
  -338.0         X   0.054248   0.054186   0.054124   0.054063   0.054001     6.464340     6.457000     6.449640     6.442310     6.434990     6.427700     6.420430     6.413180     6.405960     6.398750     6.391570     6.384410     6.377260     6.370140     6.363040   -0.054538   -0.054462   -0.054423   -0.054358   -0.054267   -0.054151   -0.053997   -0.053793   -0.053527   -0.053175   -0.052715   -0.052117   -0.051340   -0.050341   -0.049064   -0.047441   -0.045418   -0.042946   -0.039993   -0.036567   -0.032789  -0.024174  -0.016379 -1.385550e-02
  -336.0         X   0.054935   0.054873   0.054810   0.054747   0.054685     6.545490     6.538050     6.530600     6.523170     6.515770     6.508380     6.501020     6.493680     6.486360     6.479060     6.471780     6.464530     6.457300     6.450080     6.442890   -0.055249   -0.055171   -0.055132   -0.055066   -0.054975   -0.054857   -0.054701   -0.054494   -0.054224   -0.053868   -0.053402   -0.052796   -0.052009   -0.050996   -0.049702   -0.048059   -0.046009   -0.043505   -0.040513   -0.037043   -0.033215  -0.024488  -0.016590 -1.403420e-02
