Name:B X_Dim:150 Y_Dim:150 Conductance:1000.0

### Channel Times ###
      Start      End
0   -1.9505  -1.9495
1   -1.8505  -1.8495
2   -1.7505  -1.7495
3   -1.6505  -1.6495
4   -1.5505  -1.5495
5   -1.4500  -1.4490
6   -1.3505  -1.3495
7   -1.2505  -1.2495
8   -1.1505  -1.1495
9   -1.0505  -1.0495
10  -0.9505  -0.9495
11  -0.8505  -0.8495
12  -0.7505  -0.7495
13  -0.6505  -0.6495
14  -0.5505  -0.5495
15  -0.4505  -0.4495
16  -0.3505  -0.3495
17  -0.2505  -0.2495
18  -0.1505  -0.1495
19  -0.0505  -0.0495
20   0.0250   0.0260
21   0.0545   0.0555
22   0.0695   0.0705
23   0.0945   0.0955
24   0.1295   0.1305
25   0.1745   0.1755
26   0.2345   0.2355
27   0.3145   0.3155
28   0.4195   0.4205
29   0.5595   0.5605
30   0.7445   0.7455
31   0.9895   0.9905
32   1.3145   1.3155
33   1.7445   1.7455
34   2.3145   2.3155
35   3.0745   3.0755
36   4.0845   4.0855
37   5.4245   5.4255
38   7.2045   7.2055
39   9.5695   9.5705
40  12.6595  12.6605
41  22.7295  22.7305
42  39.3945  39.3955
43  48.1145  48.1155

### Data ###
 Station Component          0          1          2          3          4            5            6            7            8            9           10           11           12           13           14           15           16           17           18           19           20           21           22           23           24           25           26           27           28           29           30           31           32           33          34          35          36          37          38          39         40         41        42        43
  -400.0         X   0.018878   0.018772   0.018667   0.018562   0.018458     4.448260     4.399300     4.351490     4.304980     4.259710     4.215590     4.172570     4.130580     4.089570     4.049480     4.010270     3.971890     3.934310     3.897490     3.861390    -0.607817    -0.603438    -0.601240    -0.597616    -0.592626    -0.586349    -0.578213    -0.567762    -0.554685    -0.538289    -0.518254    -0.494198    -0.465925    -0.433612   -0.397576   -0.358225   -0.316480   -0.273305   -0.229637   -0.186588  -0.145998  -0.072866 -0.026628 -0.016179
  -398.0         X   0.019085   0.018978   0.018871   0.018765   0.018660     4.498020     4.448500     4.400140     4.353110     4.307320     4.262700     4.219190     4.176720     4.135240     4.094700     4.055040     4.016230     3.978220     3.940980     3.904470    -0.614739    -0.610310    -0.608086    -0.604420    -0.599373    -0.593023    -0.584794    -0.574222    -0.560994    -0.544410    -0.524143    -0.499810    -0.471212    -0.438527   -0.402076   -0.362273   -0.320049   -0.276380   -0.232214   -0.188676  -0.147626  -0.073673 -0.026920 -0.016357
  -396.0         X   0.019295   0.019186   0.019079   0.018971   0.018865     4.548510     4.498430     4.449510     4.401940     4.355630     4.310500     4.266490     4.223540     4.181590     4.140580     4.100470     4.061220     4.022780     3.985110     3.948190    -0.621766    -0.617286    -0.615036    -0.611328    -0.606222    -0.599799    -0.591474    -0.580779    -0.567399    -0.550622    -0.530121    -0.505507    -0.476578    -0.443515   -0.406644   -0.366382   -0.323672   -0.279501   -0.234830   -0.190795  -0.149279  -0.074491 -0.027217 -0.016536
  -394.0         X   0.019507   0.019398   0.019289   0.019180   0.019073     4.599750     4.549090     4.499620     4.451500     4.404660     4.359010     4.314500     4.271050     4.228620     4.187140     4.146580     4.106870     4.067990     4.029900     3.992550    -0.628899    -0.624367    -0.622091    -0.618340    -0.613174    -0.606677    -0.598255    -0.587436    -0.573900    -0.556929    -0.536189    -0.511289    -0.482025    -0.448578   -0.411280   -0.370552   -0.327349   -0.282669   -0.237484   -0.192945  -0.150955  -0.075320 -0.027518 -0.016719
  -392.0         X   0.019723   0.019612   0.019502   0.019392   0.019283     4.651760     4.600510     4.550470     4.501800     4.454410     4.408240     4.363220     4.319270     4.276350     4.234400     4.193370     4.153210     4.113880     4.075350     4.037570    -0.636141    -0.631556    -0.629253    -0.625458    -0.620232    -0.613659    -0.605140    -0.594194    -0.580500    -0.563331    -0.542350    -0.517159    -0.487554    -0.453718   -0.415986   -0.374785   -0.331081   -0.285885   -0.240179   -0.195127  -0.152657  -0.076163 -0.027823 -0.016904
  -390.0         X   0.019942   0.019830   0.019718   0.019607   0.019497     4.704540     4.652700     4.602080     4.552840     4.504910     4.458210     4.412660     4.368210     4.324790     4.282360     4.240850     4.200230     4.160450     4.121470     4.083260    -0.643493    -0.638854    -0.636525    -0.632685    -0.627398    -0.620748    -0.612129    -0.601055    -0.587201    -0.569830    -0.548604    -0.523119    -0.493167    -0.458936   -0.420764   -0.379082   -0.334870   -0.289149   -0.242913   -0.197342  -0.154384  -0.077017 -0.028133 -0.017091
  -388.0         X   0.020164   0.020050   0.019938   0.019826   0.019714     4.758110     4.705670     4.654460     4.604650     4.556170     4.508920     4.462850     4.417880     4.373960     4.331030     4.289050     4.247950     4.207710     4.168290     4.129630    -0.650958    -0.646265    -0.643908    -0.640023    -0.634674    -0.627945    -0.619225    -0.608021    -0.594004    -0.576429    -0.554954    -0.529169    -0.498866    -0.464233   -0.425614   -0.383445   -0.338716   -0.292462   -0.245689   -0.199590  -0.156136  -0.077884 -0.028447 -0.017282
  -386.0         X   0.020389   0.020274   0.020160   0.020047   0.019935     4.812490     4.759440     4.707630     4.657240     4.608190     4.560400     4.513790     4.468300     4.423870     4.380440     4.337960     4.296390     4.255690     4.215800     4.176700    -0.658538    -0.653789    -0.651404    -0.647474    -0.642061    -0.635253    -0.626430    -0.615094    -0.600912    -0.583130    -0.561401    -0.535312    -0.504652    -0.469612   -0.430538   -0.387873   -0.342620   -0.295825   -0.248507   -0.201872  -0.157915  -0.078765 -0.028766 -0.017475
  -384.0         X   0.020617   0.020501   0.020386   0.020272   0.020158     4.867680     4.814010     4.761600     4.710620     4.661000     4.612650     4.565490     4.519470     4.474520     4.430590     4.387620     4.345560     4.304380     4.264030     4.224470    -0.666234    -0.661429    -0.659016    -0.655039    -0.649563    -0.642674    -0.633746    -0.622276    -0.607926    -0.589933    -0.567947    -0.541550    -0.510527    -0.475073   -0.435537   -0.392370   -0.346584   -0.299239   -0.251367   -0.204188  -0.159721  -0.079658 -0.029089 -0.017671
  -382.0         X   0.020849   0.020732   0.020616   0.020500   0.020385     4.923720     4.869420     4.816390     4.764810     4.714610     4.665690     4.617980     4.571420     4.525940     4.481490     4.438020     4.395480     4.353810     4.312990     4.272970    -0.674050    -0.669188    -0.666746    -0.662721    -0.657180    -0.650209    -0.641175    -0.629569    -0.615048    -0.596841    -0.574594    -0.547883    -0.516492    -0.480617   -0.440613   -0.396935   -0.350608   -0.302706   -0.254271   -0.206539  -0.161554  -0.080564 -0.029418 -0.017870
  -380.0         X   0.021085   0.020966   0.020848   0.020731   0.020615     4.980600     4.925660     4.872010     4.819820     4.769030     4.719530     4.671260     4.624150     4.578140     4.533170     4.489190     4.446140     4.403990     4.362690     4.322200    -0.681987    -0.677067    -0.674596    -0.670523    -0.664916    -0.657862    -0.648720    -0.636975    -0.622281    -0.603857    -0.581344    -0.554315    -0.522550    -0.486248   -0.445768   -0.401571   -0.354695   -0.306225   -0.257219   -0.208926  -0.163414  -0.081484 -0.029751 -0.018072
  -378.0         X   0.021323   0.021204   0.021084   0.020966   0.020848     5.038350     4.982760     4.928470     4.875670     4.824280     4.774190     4.725360     4.677690     4.631140     4.585640     4.541130     4.497580     4.454930     4.413140     4.372180    -0.690048    -0.685069    -0.682568    -0.678447    -0.672772    -0.665634    -0.656382    -0.644496    -0.629626    -0.610982    -0.588199    -0.560847    -0.528701    -0.491965   -0.451002   -0.406278   -0.358844   -0.309799   -0.260212   -0.211350  -0.165303  -0.082418 -0.030089 -0.018276
  -376.0         X   0.021566   0.021445   0.021324   0.021204   0.021085     5.096990     5.040730     4.985800     4.932380     4.880370     4.829690     4.780280     4.732050     4.684940     4.638900     4.593870     4.549800     4.506650     4.464370     4.422920    -0.698235    -0.693196    -0.690665    -0.686494    -0.680751    -0.673527    -0.664164    -0.652135    -0.637086    -0.618218    -0.595161    -0.567480    -0.534949    -0.497772   -0.456318   -0.411058   -0.363057   -0.313427   -0.263251   -0.213810  -0.167221  -0.083366 -0.030432 -0.018484
  -374.0         X   0.021812   0.021689   0.021567   0.021446   0.021326     5.156520     5.099600     5.044010     4.989950     4.937320     4.886040     4.836040     4.787240     4.739570     4.692980     4.647420     4.602830     4.559160     4.516380     4.474430    -0.706551    -0.701450    -0.698889    -0.694668    -0.688856    -0.681544    -0.672068    -0.659894    -0.644663    -0.625567    -0.602233    -0.574217    -0.541294    -0.503669   -0.461716   -0.415912   -0.367336   -0.317112   -0.266337   -0.216308  -0.169167  -0.084329 -0.030781 -0.018695
  -372.0         X   0.022061   0.021937   0.021814   0.021691   0.021570     5.216970     5.159370     5.103120     5.048410     4.995150     4.943260     4.892660     4.843270     4.795040     4.747900     4.701790     4.656660     4.612480     4.569180     4.526740    -0.714997    -0.709835    -0.707243    -0.702971    -0.697088    -0.689688    -0.680097    -0.667775    -0.652360    -0.633032    -0.609415    -0.581061    -0.547739    -0.509659   -0.467199   -0.420843   -0.371681   -0.320854   -0.269471   -0.218845  -0.171144  -0.085306 -0.031134 -0.018909
  -370.0         X   0.022315   0.022189   0.022065   0.021941   0.021817     5.278360     5.220060     5.163140     5.107770     5.053880     5.001360     4.950150     4.900180     4.851360     4.803660     4.757000     4.711330     4.666620     4.622800     4.579850    -0.723578    -0.718353    -0.715729    -0.711405    -0.705450    -0.697960    -0.688253    -0.675781    -0.660178    -0.640615    -0.616711    -0.588012    -0.554285    -0.515743   -0.472768   -0.425850   -0.376094   -0.324654   -0.272653   -0.221421  -0.173151  -0.086297 -0.031493 -0.019127
  -368.0         X   0.022572   0.022445   0.022319   0.022194   0.022069     5.340700     5.281700     5.224090     5.168050     5.113510     5.060360     5.008540     4.957960     4.908560     4.860280     4.813060     4.766840     4.721590     4.677250     4.633790    -0.732295    -0.727006    -0.724350    -0.719973    -0.713946    -0.706364    -0.696538    -0.683914    -0.668120    -0.648318    -0.624122    -0.595073    -0.560935    -0.521923   -0.478424   -0.430936   -0.380576   -0.328513   -0.275885   -0.224037  -0.175190  -0.087304 -0.031857 -0.019348
  -366.0         X   0.022833   0.022705   0.022577   0.022450   0.022324     5.404010     5.344290     5.285980     5.229270     5.174070     5.120280     5.067830     5.016640     4.966640     4.917780     4.869990     4.823220     4.777420     4.732550     4.688560    -0.741151    -0.735797    -0.733108    -0.728677    -0.722576    -0.714901    -0.704955    -0.692176    -0.676189    -0.656144    -0.631651    -0.602246    -0.567690    -0.528200   -0.484170   -0.436103   -0.385129   -0.332434   -0.279168   -0.226694  -0.177259  -0.088327 -0.032227 -0.019571
  -364.0         X   0.023098   0.022968   0.022839   0.022711   0.022583     5.468310     5.407870     5.348850     5.291450     5.235570     5.181130     5.128050     5.076240     5.025630     4.976180     4.927810     4.880470     4.834120     4.788700     4.744180    -0.750148    -0.744728    -0.742007    -0.737521    -0.731345    -0.723576    -0.713506    -0.700570    -0.684386    -0.664095    -0.639300    -0.609533    -0.574552    -0.534578   -0.490008   -0.441351   -0.389754   -0.336415   -0.282502   -0.229392  -0.179361  -0.089365 -0.032603 -0.019799
  -362.0         X   0.023367   0.023236   0.023105   0.022975   0.022846     5.533610     5.472440     5.412700     5.354600     5.298040     5.242940     5.189210     5.136760     5.085550     5.035490     4.986530     4.938620     4.891700     4.845740     4.800680    -0.759290    -0.753803    -0.751048    -0.746507    -0.740254    -0.732389    -0.722195    -0.709099    -0.692715    -0.672173    -0.647072    -0.616937    -0.581525    -0.541057   -0.495938   -0.446683   -0.394452   -0.340460   -0.285888   -0.232133  -0.181496  -0.090419 -0.032984 -0.020030
  -360.0         X   0.023641   0.023508   0.023376   0.023244   0.023113     5.599950     5.538020     5.477550     5.418740     5.361500     5.305720     5.251330     5.198240     5.146400     5.095730     5.046180     4.997680     4.950190     4.903670     4.858050    -0.768579    -0.763025    -0.760235    -0.755638    -0.749307    -0.741344    -0.731024    -0.717765    -0.701178    -0.680381    -0.654969    -0.624460    -0.588609    -0.547640   -0.501963   -0.452099   -0.399225   -0.344569   -0.289328   -0.234916  -0.183664  -0.091490 -0.033371 -0.020264
  -358.0         X   0.023918   0.023783   0.023650   0.023517   0.023385     5.667330     5.604640     5.543430     5.483900     5.425950     5.369490     5.314430     5.260690     5.208210     5.156920     5.106760     5.057670     5.009600     4.962510     4.916340    -0.778019    -0.772395    -0.769571    -0.764916    -0.758507    -0.750445    -0.739996    -0.726572    -0.709778    -0.688721    -0.662993    -0.632105    -0.595807    -0.554329   -0.508085   -0.457603   -0.404074   -0.348744   -0.292823   -0.237744  -0.185867  -0.092577 -0.033764 -0.020502
  -356.0         X   0.024200   0.024064   0.023928   0.023794   0.023660     5.735780     5.672320     5.610350     5.550090     5.491420     5.434260     5.378530     5.324130     5.271010     5.219080     5.168310     5.118610     5.069950     5.022280     4.975540    -0.787612    -0.781918    -0.779059    -0.774345    -0.767856    -0.759693    -0.749113    -0.735521    -0.718517    -0.697197    -0.671147    -0.639873    -0.603122    -0.561126   -0.514305   -0.463195   -0.409001   -0.352985   -0.296373   -0.240616  -0.188104  -0.093681 -0.034163 -0.020744
  -354.0         X   0.024486   0.024348   0.024211   0.024075   0.023940     5.805320     5.741070     5.678340     5.617330     5.557930     5.500070     5.443640     5.388570     5.334790     5.282230     5.230820     5.180520     5.131260     5.082990     5.035680    -0.797362    -0.791596    -0.788701    -0.783928    -0.777357    -0.769091    -0.758379    -0.744616    -0.727398    -0.705811    -0.679434    -0.647767    -0.610555    -0.568033   -0.520626   -0.468877   -0.414007   -0.357294   -0.299980   -0.243535  -0.190376  -0.094803 -0.034569 -0.020989
  -352.0         X   0.024776   0.024637   0.024498   0.024360   0.024223     5.875970     5.810920     5.747410     5.685640     5.625510     5.566920     5.509800     5.454050     5.399600     5.346380     5.294340     5.243410     5.193540     5.144680     5.096780    -0.807271    -0.801432    -0.798501    -0.793668    -0.787014    -0.778644    -0.767796    -0.753860    -0.736425    -0.714565    -0.687856    -0.655790    -0.618109    -0.575052   -0.527049   -0.474651   -0.419094   -0.361672   -0.303645   -0.246499  -0.192685  -0.095942 -0.034980 -0.021238
  -350.0         X   0.025071   0.024930   0.024790   0.024650   0.024512     5.947750     5.881890     5.817580     5.755040     5.694160     5.634850     5.577010     5.520560     5.465440     5.411560     5.358870     5.307300     5.256810     5.207340     5.158850    -0.817343    -0.811431    -0.808461    -0.803568    -0.796829    -0.788353    -0.777368    -0.763255    -0.745599    -0.723463    -0.696415    -0.663944    -0.625787    -0.582186   -0.533577   -0.480519   -0.424263   -0.366121   -0.307369   -0.249512  -0.195030  -0.097099 -0.035398 -0.021491
  -348.0         X   0.025371   0.025228   0.025086   0.024945   0.024805     6.020690     5.954010     5.888890     5.825560     5.763920     5.703860     5.645300     5.588150     5.532330     5.477780     5.424430     5.372220     5.321100     5.271020     5.221920    -0.827581    -0.821593    -0.818587    -0.813631    -0.806806    -0.798223    -0.787098    -0.772805    -0.754925    -0.732507    -0.705116    -0.672232    -0.633591    -0.589437   -0.540212   -0.486482   -0.429516   -0.370643   -0.311153   -0.252572  -0.197414  -0.098274 -0.035823 -0.021748
  -346.0         X   0.025675   0.025530   0.025387   0.025244   0.025102     6.094800     6.027280     5.961340     5.897220     5.834800     5.773990     5.714690     5.656820     5.600310     5.545070     5.491050     5.438190     5.386430     5.335710     5.286000    -0.837989    -0.831925    -0.828879    -0.823860    -0.816949    -0.808255    -0.796988    -0.782514    -0.764405    -0.741701    -0.713960    -0.680657    -0.641523    -0.596807   -0.546956   -0.492543   -0.434855   -0.375237   -0.314998   -0.255682  -0.199835  -0.099468 -0.036254 -0.022009
  -344.0         X   0.025984   0.025838   0.025692   0.025548   0.025404     6.170120     6.101740     6.034970     5.970040     5.906830     5.845250     5.785210     5.726610     5.669380     5.613450     5.558750     5.505220     5.452810     5.401450     5.351110    -0.848570    -0.842428    -0.839343    -0.834259    -0.827260    -0.818455    -0.807043    -0.792383    -0.774042    -0.751047    -0.722951    -0.689221    -0.649586    -0.604298   -0.553811   -0.498704   -0.440282   -0.379907   -0.318906   -0.258843  -0.202295  -0.100681 -0.036692 -0.022274
  -342.0         X   0.026298   0.026150   0.026003   0.025856   0.025711     6.246660     6.177410     6.109800     6.044040     5.980030     5.917670     5.856870     5.797530     5.739570     5.682930     5.627540     5.573340     5.520260     5.468260     5.417280    -0.859327    -0.853106    -0.849982    -0.844832    -0.837742    -0.828824    -0.817266    -0.802416    -0.783840    -0.760549    -0.732091    -0.697928    -0.657784    -0.611914   -0.560779   -0.504967   -0.445798   -0.384654   -0.322877   -0.262055  -0.204795  -0.101914 -0.037137 -0.022544
  -340.0         X   0.026617   0.026467   0.026318   0.026170   0.026023     6.324450     6.254320     6.185840     6.119250     6.054430     5.991270     5.929690     5.869600     5.810910     5.753550     5.697450     5.642560     5.588810     5.536150     5.484530    -0.870264    -0.863963    -0.860798    -0.855582    -0.848401    -0.839367    -0.827659    -0.812618    -0.793801    -0.770209    -0.741384    -0.706779    -0.666117    -0.619656   -0.567863   -0.511333   -0.451405   -0.389478   -0.326914   -0.265319  -0.207336  -0.103166 -0.037589 -0.022817
  -338.0         X   0.026940   0.026789   0.026638   0.026488   0.026339     6.403510     6.332480     6.263130     6.195690     6.130040     6.066080     6.003710     5.942850     5.883410     5.825320     5.768510     5.712920     5.658480     5.605150     5.552870    -0.881386    -0.875002    -0.871796    -0.866513    -0.859238    -0.850087    -0.838227    -0.822991    -0.803930    -0.780032    -0.750832    -0.715779    -0.674590    -0.627528   -0.575065   -0.517805   -0.457105   -0.394383   -0.331017   -0.268637  -0.209918  -0.104438 -0.038048 -0.023095
