Name:B X_Dim:150 Y_Dim:30 Conductance:1000.0

### Channel Times ###
      Start      End
0   -1.9505  -1.9495
1   -1.8505  -1.8495
2   -1.7505  -1.7495
3   -1.6505  -1.6495
4   -1.5505  -1.5495
5   -1.4500  -1.4490
6   -1.3505  -1.3495
7   -1.2505  -1.2495
8   -1.1505  -1.1495
9   -1.0505  -1.0495
10  -0.9505  -0.9495
11  -0.8505  -0.8495
12  -0.7505  -0.7495
13  -0.6505  -0.6495
14  -0.5505  -0.5495
15  -0.4505  -0.4495
16  -0.3505  -0.3495
17  -0.2505  -0.2495
18  -0.1505  -0.1495
19  -0.0505  -0.0495
20   0.0250   0.0260
21   0.0545   0.0555
22   0.0695   0.0705
23   0.0945   0.0955
24   0.1295   0.1305
25   0.1745   0.1755
26   0.2345   0.2355
27   0.3145   0.3155
28   0.4195   0.4205
29   0.5595   0.5605
30   0.7445   0.7455
31   0.9895   0.9905
32   1.3145   1.3155
33   1.7445   1.7455
34   2.3145   2.3155
35   3.0745   3.0755
36   4.0845   4.0855
37   5.4245   5.4255
38   7.2045   7.2055
39   9.5695   9.5705
40  12.6595  12.6605
41  22.7295  22.7305
42  39.3945  39.3955
43  48.1145  48.1155

### Data ###
 Station Component             0             1             2             3             4            5            6            7            8            9           10           11           12           13           14           15           16           17           18           19           20           21           22           23           24           25           26           27           28           29           30           31           32          33          34          35          36          37          38          39         40            41            42            43
  -400.0         X  4.820780e-06  4.718360e-06  4.618120e-06  4.520000e-06  4.423980e-06     0.593563     0.576256     0.559612     0.543668     0.528377     0.513699     0.499594     0.486027     0.472967     0.460383     0.448250     0.436542     0.425237     0.414313     0.403752    -0.202024    -0.199727    -0.198576    -0.196679    -0.194073    -0.190802    -0.186575    -0.181167    -0.174435    -0.166053    -0.155900    -0.143852    -0.129908   -0.114295   -0.097364   -0.079593   -0.061795   -0.044892   -0.029848   -0.017614  -0.008944 -1.008820e-03 -2.786110e-05 -4.278920e-06
  -398.0         X  4.882030e-06  4.778310e-06  4.676790e-06  4.577430e-06  4.480180e-06     0.601088     0.583562     0.566707     0.550560     0.535076     0.520212     0.505928     0.492189     0.478963     0.466220     0.453933     0.442077     0.430628     0.419566     0.408871    -0.204585    -0.202259    -0.201093    -0.199172    -0.196533    -0.193220    -0.188940    -0.183463    -0.176647    -0.168158    -0.157877    -0.145676    -0.131555   -0.115744   -0.098598   -0.080602   -0.062578   -0.045461   -0.030227   -0.017837  -0.009058 -1.021620e-03 -2.821500e-05 -4.333290e-06
  -396.0         X  4.944310e-06  4.839270e-06  4.736450e-06  4.635830e-06  4.537340e-06     0.608740     0.590991     0.573921     0.557569     0.541888     0.526834     0.512368     0.498455     0.485060     0.472155     0.459712     0.447705     0.436110     0.424907     0.414076    -0.207189    -0.204834    -0.203652    -0.201707    -0.199034    -0.195680    -0.191345    -0.185798    -0.178895    -0.170298    -0.159886    -0.147530    -0.133229   -0.117217   -0.099853   -0.081628   -0.063375   -0.046040   -0.030612   -0.018064  -0.009173 -1.034640e-03 -2.857480e-05 -4.388570e-06
  -394.0         X  5.007650e-06  4.901260e-06  4.797130e-06  4.695210e-06  4.595460e-06     0.616520     0.598544     0.581256     0.564695     0.548814     0.533568     0.518917     0.504826     0.491260     0.478190     0.465588     0.453427     0.441685     0.430339     0.419368    -0.209837    -0.207451    -0.206255    -0.204285    -0.201578    -0.198180    -0.193790    -0.188173    -0.181181    -0.172474    -0.161929    -0.149415    -0.134932   -0.118715   -0.101129   -0.082671   -0.064185   -0.046628   -0.031003   -0.018295  -0.009290 -1.047880e-03 -2.894080e-05 -4.444780e-06
  -392.0         X  5.072050e-06  4.964290e-06  4.858830e-06  4.755600e-06  4.654570e-06     0.624432     0.606226     0.588716     0.571942     0.555857     0.540415     0.525577     0.511305     0.497565     0.484327     0.471563     0.459247     0.447353     0.435862     0.424751    -0.212529    -0.210113    -0.208901    -0.206906    -0.204164    -0.200723    -0.196277    -0.190587    -0.183506    -0.174687    -0.164007    -0.151332    -0.136663   -0.120238   -0.102427   -0.083732   -0.065008   -0.047227   -0.031401   -0.018530  -0.009410 -1.061350e-03 -2.931290e-05 -4.501950e-06
  -390.0         X  5.137560e-06  5.028410e-06  4.921580e-06  4.817020e-06  4.714680e-06     0.632479     0.614037     0.596302     0.579312     0.563020     0.547379     0.532349     0.517893     0.503977     0.490569     0.477640     0.465165     0.453118     0.441479     0.430225    -0.215268    -0.212820    -0.211593    -0.209572    -0.206795    -0.203309    -0.198806    -0.193043    -0.185870    -0.176938    -0.166120    -0.153282    -0.138424   -0.121787   -0.103747   -0.084811   -0.065846   -0.047835   -0.031806   -0.018769  -0.009531 -1.075040e-03 -2.969140e-05 -4.560100e-06
  -388.0         X  5.204180e-06  5.093620e-06  4.985400e-06  4.879490e-06  4.775820e-06     0.640663     0.621983     0.604017     0.586808     0.570305     0.554462     0.539238     0.524595     0.510498     0.496917     0.483821     0.471184     0.458982     0.447191     0.435792    -0.218052    -0.215573    -0.214330    -0.212283    -0.209470    -0.205940    -0.201378    -0.195540    -0.188275    -0.179227    -0.168269    -0.155265    -0.140215   -0.123363   -0.105089   -0.085908   -0.066698   -0.048454   -0.032217   -0.019012  -0.009654 -1.088970e-03 -3.007630e-05 -4.619230e-06
  -386.0         X  5.271950e-06  5.159950e-06  5.050320e-06  4.943030e-06  4.838020e-06     0.648986     0.630064     0.611865     0.594432     0.577715     0.561666     0.546244     0.531411     0.517131     0.503373     0.490107     0.477306     0.464945     0.453002     0.441454    -0.220885    -0.218374    -0.217114    -0.215041    -0.212191    -0.208615    -0.203994    -0.198080    -0.190720    -0.181555    -0.170455    -0.157282    -0.142036   -0.124965   -0.106454   -0.087024   -0.067565   -0.049084   -0.032636   -0.019259  -0.009780 -1.103140e-03 -3.046790e-05 -4.679390e-06
  -384.0         X  5.340890e-06  5.227420e-06  5.116370e-06  5.007670e-06  4.901280e-06     0.657453     0.638284     0.619848     0.602188     0.585252     0.568994     0.553370     0.538344     0.523878     0.509940     0.496501     0.483533     0.471011     0.458912     0.447214    -0.223766    -0.221222    -0.219946    -0.217846    -0.214959    -0.211336    -0.206654    -0.200664    -0.193208    -0.183923    -0.172678    -0.159334    -0.143889   -0.126595   -0.107843   -0.088159   -0.068446   -0.049724   -0.033062   -0.019510  -0.009908 -1.117550e-03 -3.086620e-05 -4.740580e-06
  -382.0         X  5.411030e-06  5.296070e-06  5.183550e-06  5.073430e-06  4.965640e-06     0.666066     0.646645     0.627968     0.610077     0.592919     0.576448     0.560620     0.545396     0.530741     0.516621     0.503006     0.489868     0.477182     0.464924     0.453073    -0.226697    -0.224120    -0.222827    -0.220700    -0.217775    -0.214104    -0.209361    -0.203292    -0.195739    -0.186332    -0.174940    -0.161421    -0.145773   -0.128253   -0.109255   -0.089314   -0.069343   -0.050376   -0.033495   -0.019766  -0.010037 -1.132210e-03 -3.127140e-05 -4.802830e-06
  -380.0         X  5.482380e-06  5.365900e-06  5.251900e-06  5.140330e-06  5.031120e-06     0.674828     0.655152     0.636229     0.618102     0.600719     0.584031     0.567995     0.552571     0.537723     0.523418     0.509623     0.496313     0.483460     0.471041     0.459034    -0.229679    -0.227068    -0.225758    -0.223602    -0.220639    -0.216920    -0.212115    -0.205966    -0.198313    -0.188783    -0.177241    -0.163544    -0.147691   -0.129940   -0.110692   -0.090489   -0.070255   -0.051039   -0.033936   -0.020026  -0.010170 -1.147120e-03 -3.168360e-05 -4.866160e-06
  -378.0         X  5.554970e-06  5.436960e-06  5.321450e-06  5.208390e-06  5.097740e-06     0.683743     0.663807     0.644634     0.626268     0.608655     0.591746     0.575499     0.559871     0.544827     0.530332     0.516356     0.502870     0.489847     0.477264     0.465098    -0.232713    -0.230067    -0.228740    -0.226556    -0.223553    -0.219785    -0.214916    -0.208686    -0.200933    -0.191277    -0.179582    -0.165704    -0.149641   -0.131657   -0.112154   -0.091684   -0.071183   -0.051713   -0.034384   -0.020291  -0.010304 -1.162290e-03 -3.210300e-05 -4.930600e-06
  -376.0         X  5.628840e-06  5.509260e-06  5.392210e-06  5.277660e-06  5.165530e-06     0.692813     0.672613     0.653185     0.634575     0.616729     0.599596     0.583133     0.567299     0.552055     0.537368     0.523206     0.509541     0.496346     0.483596     0.471268    -0.235799    -0.233118    -0.231774    -0.229561    -0.226518    -0.222700    -0.217767    -0.211454    -0.203598    -0.193813    -0.181964    -0.167901    -0.151626   -0.133403   -0.113642   -0.092900   -0.072127   -0.052399   -0.034841   -0.020560  -0.010441 -1.177730e-03 -3.252980e-05 -4.996170e-06
  -374.0         X  5.704010e-06  5.582830e-06  5.464220e-06  5.348140e-06  5.234520e-06     0.702042     0.681573     0.661887     0.643029     0.624945     0.607584     0.590902     0.574856     0.559409     0.544527     0.530176     0.516329     0.502958     0.490038     0.477547    -0.238940    -0.236223    -0.234861    -0.232618    -0.229535    -0.225666    -0.220667    -0.214271    -0.206309    -0.196395    -0.184387    -0.170138    -0.153646   -0.135180   -0.115156   -0.094138   -0.073088   -0.053097   -0.035305   -0.020834  -0.010580 -1.193440e-03 -3.296410e-05 -5.062890e-06
  -372.0         X  5.780510e-06  5.657700e-06  5.537510e-06  5.419860e-06  5.304720e-06     0.711434     0.690691     0.670742     0.651632     0.633306     0.615713     0.598807     0.582547     0.566893     0.551812     0.537270     0.523237     0.509687     0.496595     0.483936    -0.242136    -0.239383    -0.238002    -0.235729    -0.232605    -0.228685    -0.223619    -0.217137    -0.209069    -0.199022    -0.186854    -0.172413    -0.155701   -0.136988   -0.116696   -0.095397   -0.074066   -0.053808   -0.035777   -0.021113  -0.010722 -1.209430e-03 -3.340600e-05 -5.130790e-06
  -370.0         X  5.858370e-06  5.733910e-06  5.612090e-06  5.492860e-06  5.376170e-06     0.720992     0.699970     0.679753     0.660386     0.641814     0.623985     0.606852     0.590374     0.574510     0.559226     0.544488     0.530267     0.516535     0.503267     0.490438    -0.245388    -0.242598    -0.241199    -0.238896    -0.235730    -0.231757    -0.226623    -0.220053    -0.211877    -0.201695    -0.189363    -0.174729    -0.157792   -0.138828   -0.118264   -0.096679   -0.075061   -0.054531   -0.036258   -0.021396  -0.010866 -1.225700e-03 -3.385590e-05 -5.199900e-06
  -368.0         X  5.937610e-06  5.811470e-06  5.688000e-06  5.567160e-06  5.448890e-06     0.730720     0.709414     0.688924     0.669296     0.650474     0.632404     0.615040     0.598339     0.582262     0.566771     0.551835     0.537422     0.523505     0.510057     0.497056    -0.248698    -0.245871    -0.244453    -0.242118    -0.238910    -0.234883    -0.229680    -0.223022    -0.214735    -0.204416    -0.191918    -0.177086    -0.159921   -0.140701   -0.119859   -0.097983   -0.076074   -0.055266   -0.036747   -0.021685  -0.011012 -1.242260e-03 -3.431370e-05 -5.270240e-06
  -366.0         X  6.018270e-06  5.890410e-06  5.765270e-06  5.642790e-06  5.522910e-06     0.740621     0.719027     0.698259     0.678365     0.659288     0.640973     0.623374     0.606447     0.590151     0.574451     0.559312     0.544704     0.530599     0.516969     0.503791    -0.252067    -0.249202    -0.247764    -0.245398    -0.242146    -0.238065    -0.232791    -0.226043    -0.217644    -0.207185    -0.194518    -0.179485    -0.162087   -0.142607   -0.121483   -0.099310   -0.077105   -0.056015   -0.037245   -0.021979  -0.011162 -1.259120e-03 -3.477970e-05 -5.341840e-06
  -364.0         X  6.100380e-06  5.970780e-06  5.843930e-06  5.719780e-06  5.598270e-06     0.750699     0.728811     0.707761     0.687597     0.668259     0.649696     0.631857     0.614700     0.598183     0.582269     0.566924     0.552117     0.537820     0.524005     0.510647    -0.255497    -0.252592    -0.251135    -0.248737    -0.245441    -0.241304    -0.235958    -0.229118    -0.220605    -0.210004    -0.197164    -0.181927    -0.164292   -0.144547   -0.123136   -0.100662   -0.078154   -0.056778   -0.037752   -0.022279  -0.011314 -1.276280e-03 -3.525400e-05 -5.414720e-06
  -362.0         X  6.183980e-06  6.052600e-06  5.924010e-06  5.798160e-06  5.674980e-06     0.760959     0.738772     0.717434     0.696994     0.677392     0.658575     0.640493     0.623101     0.606358     0.590227     0.574672     0.559663     0.545170     0.531167     0.517627    -0.258988    -0.256044    -0.254567    -0.252136    -0.248794    -0.244601    -0.239182    -0.232249    -0.223619    -0.212873    -0.199858    -0.184413    -0.166537   -0.146522   -0.124818   -0.102037   -0.079222   -0.057554   -0.038268   -0.022583  -0.011468 -1.293750e-03 -3.573700e-05 -5.488920e-06
  -360.0         X  6.269080e-06  6.135900e-06  6.005540e-06  5.877960e-06  5.753080e-06     0.771403     0.748912     0.727281     0.706561     0.686690     0.667615     0.649284     0.631654     0.614681     0.598328     0.582561     0.567346     0.552654     0.538458     0.524732    -0.262542    -0.259557    -0.258060    -0.255596    -0.252208    -0.247958    -0.242465    -0.235436    -0.226688    -0.215794    -0.202601    -0.186944    -0.168823   -0.148533   -0.126531   -0.103438   -0.080309   -0.058344   -0.038794   -0.022893  -0.011626 -1.311530e-03 -3.622860e-05 -5.564460e-06
  -358.0         X  6.355740e-06  6.220710e-06  6.088560e-06  5.959210e-06  5.832610e-06     0.782037     0.759236     0.737307     0.716301     0.696157     0.676818     0.658235     0.640362     0.623155     0.606577     0.590592     0.575167     0.560273     0.545881     0.531967    -0.266161    -0.263134    -0.261617    -0.259119    -0.255685    -0.251375    -0.245806    -0.238681    -0.229812    -0.218769    -0.205393    -0.189520    -0.171150   -0.150580   -0.128275   -0.104864   -0.081416   -0.059148   -0.039329   -0.023209  -0.011786 -1.329640e-03 -3.672930e-05 -5.641380e-06
  -356.0         X  6.443980e-06  6.307080e-06  6.173090e-06  6.041940e-06  5.913590e-06     0.792865     0.769748     0.747516     0.726219     0.705795     0.686189     0.667349     0.649228     0.631783     0.614976     0.598770     0.583131     0.568031     0.553440     0.539333    -0.269845    -0.266777    -0.265238    -0.262705    -0.259224    -0.254855    -0.249209    -0.241985    -0.232994    -0.221797    -0.208236    -0.192144    -0.173519   -0.152665   -0.130051   -0.106315   -0.082544   -0.059967   -0.039873   -0.023531  -0.011950 -1.348080e-03 -3.723900e-05 -5.719710e-06
  -354.0         X  6.533840e-06  6.395030e-06  6.259170e-06  6.126200e-06  5.996050e-06     0.803891     0.780452     0.757911     0.736318     0.715610     0.695732     0.676630     0.658257     0.640569     0.623528     0.607097     0.591241     0.575930     0.561137     0.546833    -0.273596    -0.270486    -0.268926    -0.266358    -0.262828    -0.258398    -0.252674    -0.245349    -0.236233    -0.224880    -0.211131    -0.194815    -0.175931   -0.154787   -0.131859   -0.107794   -0.083691   -0.060801   -0.040428   -0.023858  -0.012116 -1.366850e-03 -3.775810e-05 -5.799470e-06
  -352.0         X  6.625360e-06  6.484600e-06  6.346840e-06  6.212000e-06  6.080040e-06     0.815119     0.791353     0.768497     0.746602     0.725606     0.705449     0.686080     0.667451     0.649517     0.632238     0.615576     0.599499     0.583975     0.568975     0.554472    -0.277417    -0.274263    -0.272681    -0.270077    -0.266498    -0.262006    -0.256202    -0.248775    -0.239531    -0.228021    -0.214080    -0.197535    -0.178388   -0.156949   -0.133701   -0.109299   -0.084860   -0.061650   -0.040993   -0.024191  -0.012285 -1.385970e-03 -3.828680e-05 -5.880700e-06
  -350.0         X  6.718570e-06  6.575830e-06  6.436130e-06  6.299400e-06  6.165580e-06     0.826553     0.802454     0.779278     0.757076     0.735785     0.715346     0.695706     0.676815     0.658629     0.641108     0.624213     0.607910     0.592168     0.576958     0.562251    -0.281308    -0.278110    -0.276506    -0.273865    -0.270236    -0.265681    -0.259795    -0.252264    -0.242891    -0.231219    -0.217082    -0.200306    -0.180890   -0.159150   -0.135576   -0.110832   -0.086051   -0.062515   -0.041568   -0.024531  -0.012458 -1.405450e-03 -3.882530e-05 -5.963440e-06
  -348.0         X  6.813510e-06  6.668760e-06  6.527080e-06  6.388420e-06  6.252710e-06     0.838200     0.813761     0.790258     0.767744     0.746153     0.725426     0.705509     0.686352     0.667910     0.650142     0.633009     0.616477     0.600513     0.585088     0.570174    -0.285271    -0.282027    -0.280401    -0.277723    -0.274042    -0.269423    -0.263455    -0.255818    -0.246313    -0.234476    -0.220140    -0.203128    -0.183438   -0.161392   -0.137486   -0.112394   -0.087263   -0.063396   -0.042154   -0.024877  -0.012634 -1.425280e-03 -3.937380e-05 -6.047710e-06
  -346.0         X  6.910220e-06  6.763420e-06  6.619730e-06  6.479100e-06  6.341460e-06     0.850063     0.825279     0.801443     0.778610     0.756714     0.735693     0.715494     0.696066     0.677364     0.659344     0.641969     0.625203     0.609013     0.593370     0.578245    -0.289307    -0.286018    -0.284368    -0.281653    -0.277920    -0.273236    -0.267183    -0.259438    -0.249798    -0.237794    -0.223255    -0.206002    -0.186034   -0.163676   -0.139432   -0.113984   -0.088498   -0.064294   -0.042751   -0.025229  -0.012813 -1.445490e-03 -3.993250e-05 -6.133560e-06
  -344.0         X  7.008750e-06  6.859850e-06  6.714120e-06  6.571490e-06  6.431880e-06     0.862148     0.837011     0.812836     0.789679     0.767471     0.746153     0.725666     0.705962     0.686994     0.668718     0.651096     0.634091     0.617672     0.601806     0.586466    -0.293419    -0.290083    -0.288410    -0.285656    -0.281870    -0.277119    -0.270980    -0.263125    -0.253348    -0.241173    -0.226428    -0.208930    -0.188678   -0.166002   -0.141414   -0.115605   -0.089756   -0.065208   -0.043359   -0.025588  -0.012995 -1.466070e-03 -4.050160e-05 -6.221010e-06
  -342.0         X  7.109140e-06  6.958110e-06  6.810290e-06  6.665610e-06  6.524010e-06     0.874459     0.848963     0.824444     0.800956     0.778431     0.756808     0.736029     0.716044     0.696804     0.678268     0.660394     0.643147     0.626493     0.610401     0.594842    -0.297608    -0.294224    -0.292527    -0.289734    -0.285894    -0.281075    -0.274849    -0.266881    -0.256965    -0.244616    -0.229661    -0.211912    -0.191372   -0.168372   -0.143433   -0.117255   -0.091038   -0.066139   -0.043978   -0.025954  -0.013181 -1.487040e-03 -4.108150e-05 -6.310120e-06
  -340.0         X  7.211420e-06  7.058220e-06  6.908270e-06  6.761510e-06  6.617870e-06     0.887002     0.861141     0.836270     0.812445     0.789597     0.767664     0.746587     0.726315     0.706800     0.687997     0.669867     0.652373     0.635480     0.619157     0.603375    -0.301876    -0.298444    -0.296722    -0.293889    -0.289994    -0.285106    -0.278790    -0.270708    -0.260650    -0.248124    -0.232954    -0.214951    -0.194116   -0.170787   -0.145490   -0.118937   -0.092344   -0.067088   -0.044609   -0.026326  -0.013370 -1.508410e-03 -4.167240e-05 -6.400910e-06
