Name:B X_Dim:200 Y_Dim:600 Conductance:1000.0

### Channel Times ###
      Start      End
0   -1.9505  -1.9495
1   -1.8505  -1.8495
2   -1.7505  -1.7495
3   -1.6505  -1.6495
4   -1.5505  -1.5495
5   -1.4500  -1.4490
6   -1.3505  -1.3495
7   -1.2505  -1.2495
8   -1.1505  -1.1495
9   -1.0505  -1.0495
10  -0.9505  -0.9495
11  -0.8505  -0.8495
12  -0.7505  -0.7495
13  -0.6505  -0.6495
14  -0.5505  -0.5495
15  -0.4505  -0.4495
16  -0.3505  -0.3495
17  -0.2505  -0.2495
18  -0.1505  -0.1495
19  -0.0505  -0.0495
20   0.0250   0.0260
21   0.0545   0.0555
22   0.0695   0.0705
23   0.0945   0.0955
24   0.1295   0.1305
25   0.1745   0.1755
26   0.2345   0.2355
27   0.3145   0.3155
28   0.4195   0.4205
29   0.5595   0.5605
30   0.7445   0.7455
31   0.9895   0.9905
32   1.3145   1.3155
33   1.7445   1.7455
34   2.3145   2.3155
35   3.0745   3.0755
36   4.0845   4.0855
37   5.4245   5.4255
38   7.2045   7.2055
39   9.5695   9.5705
40  12.6595  12.6605
41  22.7295  22.7305
42  39.3945  39.3955
43  48.1145  48.1155

### Data ###
 Station Component          0          1          2          3          4            5            6            7            8            9           10           11           12           13           14           15           16           17           18           19           20           21           22           23           24           25           26           27           28           29           30           31           32          33          34          35          36          37          38          39          40         41         42        43
  -400.0         X   0.071648   0.071370   0.071094   0.070818   0.070544     9.257420     9.199910     9.142730     9.086160     9.030190     8.974800     8.919990     8.865750     8.812060     8.758920     8.706320     8.654250     8.602700     8.551660     8.501120    -0.738325    -0.735949    -0.734745    -0.732746    -0.729962    -0.726407    -0.721710    -0.715524    -0.707532    -0.697099    -0.683687    -0.666557    -0.644880   -0.617906   -0.584868   -0.545073   -0.498593   -0.446115   -0.388927   -0.329046   -0.269781  -0.155493  -0.073065 -0.051094
  -398.0         X   0.072302   0.072022   0.071743   0.071464   0.071187     9.347560     9.289460     9.231700     9.174540     9.117990     9.062040     9.006660     8.951860     8.897620     8.843940     8.790800     8.738190     8.686110     8.634550     8.583500    -0.745993    -0.743591    -0.742374    -0.740354    -0.737540    -0.733947    -0.729200    -0.722947    -0.714870    -0.704325    -0.690770    -0.673455    -0.651547   -0.624284   -0.590894   -0.550674   -0.503699   -0.450663   -0.392870   -0.332358   -0.272473  -0.157006  -0.073753 -0.051569
  -396.0         X   0.072965   0.072681   0.072399   0.072118   0.071839     9.438890     9.380190     9.321830     9.264090     9.206950     9.150420     9.094470     9.039110     8.984310     8.930070     8.876380     8.823240     8.770620     8.718530     8.666950    -0.753768    -0.751340    -0.750111    -0.748068    -0.745224    -0.741593    -0.736794    -0.730474    -0.722310    -0.711652    -0.697951    -0.680451    -0.658307   -0.630751   -0.597003   -0.556352   -0.508875   -0.455273   -0.396867   -0.335715   -0.275201  -0.158540  -0.074450 -0.052049
  -394.0         X   0.073635   0.073349   0.073064   0.072780   0.072498     9.531420     9.472120     9.413150     9.354800     9.297080     9.239960     9.183430     9.127490     9.072130     9.017330     8.963090     8.909390     8.856230     8.803600     8.751490    -0.761653    -0.759199    -0.757956    -0.755891    -0.753016    -0.749346    -0.744496    -0.738107    -0.729855    -0.719082    -0.705233    -0.687544    -0.665161   -0.637309   -0.603197   -0.562110   -0.514123   -0.459948   -0.400918   -0.339118   -0.277965  -0.160093  -0.075156 -0.052536
  -392.0         X   0.074313   0.074024   0.073737   0.073451   0.073166     9.625180     9.565250     9.505670     9.446720     9.388390     9.330680     9.273570     9.217040     9.161110     9.105740     9.050930     8.996680     8.942970     8.889790     8.837140    -0.769649    -0.767168    -0.765912    -0.763825    -0.760919    -0.757208    -0.752306    -0.745848    -0.737507    -0.726616    -0.712617    -0.694737    -0.672112   -0.643958   -0.609478   -0.567947   -0.519444   -0.464687   -0.405025   -0.342567   -0.280768  -0.161667  -0.075871 -0.053029
  -390.0         X   0.075000   0.074708   0.074418   0.074129   0.073842     9.720170     9.659620     9.599410     9.539850     9.480910     9.422600     9.364890     9.307780     9.251260     9.195310     9.139940     9.085120     9.030850     8.977120     8.923920    -0.777758    -0.775250    -0.773980    -0.771871    -0.768933    -0.765182    -0.760226    -0.753698    -0.745266    -0.734257    -0.720106    -0.702031    -0.679161   -0.650701   -0.615847   -0.573867   -0.524839   -0.469491   -0.409189   -0.346063   -0.283608  -0.163262  -0.076595 -0.053527
  -388.0         X   0.075695   0.075401   0.075108   0.074816   0.074526     9.816430     9.755240     9.694400     9.634210     9.574660     9.515730     9.457420     9.399720     9.342600     9.286070     9.230120     9.174730     9.119890     9.065600     9.011850    -0.785983    -0.783448    -0.782163    -0.780031    -0.777061    -0.773269    -0.768259    -0.761660    -0.753136    -0.742006    -0.727701    -0.709429    -0.686309   -0.657540   -0.622306   -0.579869   -0.530310   -0.474363   -0.413410   -0.349607   -0.286486  -0.164878  -0.077329 -0.054033
  -386.0         X   0.076399   0.076102   0.075806   0.075511   0.075218     9.913970     9.852140     9.790660     9.729840     9.669660     9.610110     9.551190     9.492870     9.435160     9.378040     9.321500     9.265520     9.210110     9.155260     9.100940    -0.794324    -0.791762    -0.790463    -0.788307    -0.785305    -0.781471    -0.776407    -0.769735    -0.761117    -0.749866    -0.735404    -0.716932    -0.693559   -0.664475   -0.628856   -0.585957   -0.535857   -0.479303   -0.417691   -0.353200   -0.289405  -0.166515  -0.078071 -0.054544
  -384.0         X   0.077111   0.076811   0.076513   0.076215   0.075919    10.012800     9.950330     9.888200     9.826740     9.765920     9.705750     9.646200     9.587270     9.528950     9.471230     9.414090     9.357530     9.301540     9.246100     9.191220    -0.802786    -0.800195    -0.798882    -0.796702    -0.793667    -0.789791    -0.784671    -0.777926    -0.769213    -0.757838    -0.743217    -0.724542    -0.700912   -0.671509   -0.635500   -0.592130   -0.541483   -0.484312   -0.422030   -0.356843   -0.292363  -0.168174  -0.078824 -0.055062
  -382.0         X   0.077833   0.077530   0.077228   0.076928   0.076629    10.113000    10.049800     9.987050     9.924940     9.863480     9.802670     9.742490     9.682940     9.624000     9.565670     9.507930     9.450770     9.394180     9.338160     9.282700    -0.811368    -0.808749    -0.807422    -0.805218    -0.802149    -0.798230    -0.793053    -0.786234    -0.777425    -0.765925    -0.751142    -0.732261    -0.708370   -0.678643   -0.642237   -0.598391   -0.547188   -0.489391   -0.426431   -0.360536   -0.295361  -0.169856  -0.079586 -0.055586
  -380.0         X   0.078563   0.078257   0.077953   0.077649   0.077348    10.214500    10.150700    10.087200    10.024500     9.962340     9.900890     9.840070     9.779890     9.720320     9.661370     9.603020     9.545250     9.488070     9.431460     9.375410    -0.820075    -0.817426    -0.816085    -0.813856    -0.810753    -0.806791    -0.801557    -0.794662    -0.785755    -0.774127    -0.759181    -0.740091    -0.715936   -0.685880   -0.649071   -0.604741   -0.552974   -0.494543   -0.430893   -0.364281   -0.298401  -0.171560  -0.080357 -0.056118
  -378.0         X   0.079302   0.078994   0.078686   0.078380   0.078075    10.317400    10.252900    10.188800    10.125300    10.062500    10.000400     9.938970     9.878140     9.817940     9.758360     9.699390     9.641010     9.583220     9.526010     9.469360    -0.828908    -0.826229    -0.824873    -0.822620    -0.819482    -0.815476    -0.810183    -0.803211    -0.794206    -0.782448    -0.767336    -0.748033    -0.723610   -0.693220   -0.656004   -0.611182   -0.558843   -0.499767   -0.435418   -0.368078   -0.301484  -0.173286  -0.081139 -0.056655
  -376.0         X   0.080051   0.079739   0.079429   0.079120   0.078812    10.421700    10.356500    10.291700    10.227500    10.164100    10.101300    10.039200     9.977720     9.916880     9.856670     9.797060     9.738060     9.679650     9.621830     9.564580    -0.837868    -0.835160    -0.833788    -0.831510    -0.828337    -0.824286    -0.818935    -0.811885    -0.802779    -0.790890    -0.775609    -0.756091    -0.731395   -0.700666   -0.663036   -0.617716   -0.564796   -0.505066   -0.440007   -0.371929   -0.304609  -0.175037  -0.081931 -0.057200
  -374.0         X   0.080810   0.080494   0.080181   0.079869   0.079558    10.527400    10.461500    10.396000    10.331200    10.267000    10.203600    10.140800    10.078700    10.017200     9.956300     9.896060     9.836420     9.777390     9.718940     9.661080    -0.846960    -0.844221    -0.842834    -0.840530    -0.837322    -0.833225    -0.827813    -0.820685    -0.811476    -0.799454    -0.784002    -0.764265    -0.739293   -0.708220   -0.670169   -0.624343   -0.570834   -0.510440   -0.444662   -0.375833   -0.307777  -0.176810  -0.082734 -0.057752
  -372.0         X   0.081577   0.081259   0.080943   0.080627   0.080313    10.634500    10.567900    10.501700    10.436200    10.371400    10.307200    10.243800    10.181000    10.118800    10.057300     9.996400     9.936120     9.876450     9.817380     9.758890    -0.856184    -0.853415    -0.852012    -0.849682    -0.846438    -0.842295    -0.836822    -0.829613    -0.820301    -0.808144    -0.792517    -0.772559    -0.747306   -0.715884   -0.677406   -0.631067   -0.576958   -0.515892   -0.449382   -0.379793   -0.310990  -0.178608  -0.083546 -0.058311
  -370.0         X   0.082355   0.082033   0.081714   0.081395   0.081078    10.743100    10.675800    10.608900    10.542700    10.477100    10.412300    10.348100    10.284700    10.221800    10.159700    10.098100    10.037200     9.976870     9.917160     9.858040    -0.865544    -0.862743    -0.861324    -0.858968    -0.855687    -0.851498    -0.845963    -0.838672    -0.829255    -0.816961    -0.801158    -0.780974    -0.755436   -0.723660   -0.684748   -0.637888   -0.583172   -0.521421   -0.454170   -0.383809   -0.314248  -0.180431  -0.084370 -0.058877
  -368.0         X   0.083142   0.082818   0.082495   0.082173   0.081853    10.853300    10.785200    10.717500    10.650600    10.584300    10.518800    10.454000    10.389800    10.326300    10.263400    10.201200    10.139600    10.078700    10.018300     9.958540    -0.875041    -0.872209    -0.870774    -0.868391    -0.865073    -0.860836    -0.855238    -0.847865    -0.838341    -0.825907    -0.809925    -0.789512    -0.763685   -0.731549   -0.692197   -0.644808   -0.589475   -0.527031   -0.459027   -0.387882   -0.317551  -0.182278  -0.085204 -0.059451
  -366.0         X   0.083939   0.083612   0.083285   0.082961   0.082637    10.964900    10.896100    10.827700    10.760000    10.693000    10.626800    10.561200    10.496400    10.432200    10.368600    10.305700    10.243500    10.181800    10.120800    10.060400    -0.884680    -0.881815    -0.880364    -0.877954    -0.874597    -0.870312    -0.864651    -0.857194    -0.847561    -0.834985    -0.818821    -0.798176    -0.772055   -0.739554   -0.699756   -0.651829   -0.595871   -0.532721   -0.463953   -0.392013   -0.320902  -0.184151  -0.086050 -0.060031
  -364.0         X   0.084747   0.084416   0.084086   0.083758   0.083432    11.078000    11.008500    10.939300    10.870900    10.803200    10.736200    10.670000    10.604400    10.539500    10.475200    10.411700    10.348700    10.286400    10.224800    10.163700    -0.894461    -0.891563    -0.890095    -0.887658    -0.884263    -0.879929    -0.874203    -0.866660    -0.856918    -0.844198    -0.827849    -0.806968    -0.780549   -0.747678   -0.707425   -0.658953   -0.602359   -0.538495   -0.468950   -0.396203   -0.324300  -0.186050  -0.086906 -0.060620
  -362.0         X   0.085565   0.085230   0.084898   0.084566   0.084236    11.192800    11.122500    11.052500    10.983400    10.914900    10.847200    10.780200    10.713900    10.648300    10.583400    10.519100    10.455500    10.392500    10.330100    10.268400    -0.904387    -0.901456    -0.899972    -0.897506    -0.894073    -0.889689    -0.883897    -0.876268    -0.866413    -0.853548    -0.837011    -0.815891    -0.789169   -0.755921   -0.715208   -0.666182   -0.608943   -0.544352   -0.474020   -0.400453   -0.327746  -0.187974  -0.087774 -0.061216
  -360.0         X   0.086393   0.086055   0.085719   0.085385   0.085051    11.309100    11.238000    11.167300    11.097400    11.028200    10.959700    10.892000    10.825000    10.758600    10.693000    10.628000    10.563700    10.500000    10.437000    10.374500    -0.914463    -0.911498    -0.909996    -0.907502    -0.904029    -0.899595    -0.893736    -0.886019    -0.876051    -0.863037    -0.846310    -0.824946    -0.797917   -0.764287   -0.723106   -0.673518   -0.615624   -0.550296   -0.479164   -0.404765   -0.331241  -0.189926  -0.088653 -0.061820
  -358.0         X   0.087232   0.086891   0.086552   0.086213   0.085877    11.427100    11.355200    11.283700    11.213000    11.143000    11.073800    11.005300    10.937600    10.870500    10.804100    10.738400    10.673400    10.609000    10.545300    10.482200    -0.924689    -0.921690    -0.920171    -0.917648    -0.914134    -0.909649    -0.903722    -0.895916    -0.885832    -0.872668    -0.855748    -0.834137    -0.806795   -0.772777   -0.731122   -0.680962   -0.622403   -0.556326   -0.484383   -0.409139   -0.334787  -0.191905  -0.089545 -0.062432
  -356.0         X   0.088082   0.087737   0.087394   0.087053   0.086713    11.546700    11.474000    11.401700    11.330200    11.259500    11.189500    11.120300    11.051700    10.983900    10.916800    10.850400    10.784600    10.719500    10.655100    10.591300    -0.935069    -0.932035    -0.930498    -0.927946    -0.924392    -0.919854    -0.913859    -0.905962    -0.895761    -0.882444    -0.865327    -0.843466    -0.815807   -0.781394   -0.739257   -0.688517   -0.629282   -0.562446   -0.489678   -0.413577   -0.338383  -0.193911  -0.090448 -0.063052
  -354.0         X   0.088943   0.088595   0.088248   0.087903   0.087560    11.668000    11.594500    11.521400    11.449100    11.377600    11.306800    11.236800    11.167500    11.098900    11.031100    10.963900    10.897400    10.831600    10.766400    10.701900    -0.945606    -0.942537    -0.940982    -0.938400    -0.934805    -0.930214    -0.924148    -0.916159    -0.905840    -0.892367    -0.875051    -0.852935    -0.824954   -0.790141   -0.747513   -0.696185   -0.636264   -0.568655   -0.495050   -0.418079   -0.342031  -0.195945  -0.091363 -0.063680
  -352.0         X   0.089815   0.089463   0.089113   0.088765   0.088418    11.791000    11.716700    11.642800    11.569700    11.497300    11.425800    11.355000    11.284900    11.215600    11.146900    11.079000    11.011800    10.945200    10.879400    10.814100    -0.956303    -0.953198    -0.951625    -0.949013    -0.945375    -0.940730    -0.934594    -0.926511    -0.916071    -0.902441    -0.884922    -0.862547    -0.834239   -0.799019   -0.755894   -0.703968   -0.643350   -0.574958   -0.500502   -0.422647   -0.345732  -0.198008  -0.092291 -0.064316
  -350.0         X   0.090698   0.090343   0.089989   0.089637   0.089287    11.915700    11.840600    11.765800    11.691900    11.618800    11.546400    11.474800    11.404000    11.333800    11.264500    11.195800    11.127800    11.060500    10.993900    10.927900    -0.967163    -0.964021    -0.962430    -0.959787    -0.956106    -0.951407    -0.945199    -0.937021    -0.926458    -0.912667    -0.894942    -0.872305    -0.843664   -0.808032   -0.764402   -0.711868   -0.650542   -0.581354   -0.506035   -0.427282   -0.349487  -0.200100  -0.093231 -0.064961
  -348.0         X   0.091593   0.091234   0.090877   0.090521   0.090167    12.042200    11.966200    11.890700    11.815900    11.741900    11.668800    11.596400    11.524700    11.453800    11.383600    11.314200    11.245400    11.177400    11.110000    11.043300    -0.978189    -0.975010    -0.973400    -0.970726    -0.967001    -0.962247    -0.955965    -0.947690    -0.937003    -0.923050    -0.905116    -0.882211    -0.853233   -0.817181   -0.773038   -0.719887   -0.657842   -0.587845   -0.511650   -0.431985   -0.353297  -0.202221  -0.094184 -0.065615
  -346.0         X   0.092499   0.092137   0.091776   0.091417   0.091059    12.170600    12.093700    12.017300    11.941700    11.866900    11.792800    11.719600    11.647200    11.575500    11.504500    11.434200    11.364700    11.295900    11.227800    11.160300    -0.989384    -0.986167    -0.984538    -0.981832    -0.978064    -0.973252    -0.966896    -0.958524    -0.947709    -0.933591    -0.915445    -0.892269    -0.862948   -0.826469   -0.781805   -0.728027   -0.665253   -0.594434   -0.517348   -0.436758   -0.357162  -0.204373  -0.095150 -0.066277
  -344.0         X   0.093418   0.093052   0.092687   0.092324   0.091963    12.300700    12.223000    12.145700    12.069200    11.993600    11.918700    11.844600    11.771400    11.698800    11.627100    11.556000    11.485700    11.416100    11.347200    11.279000    -1.000750    -0.997496    -0.995847    -0.993109    -0.989296    -0.984428    -0.977996    -0.969524    -0.958581    -0.944294    -0.925932    -0.902481    -0.872812   -0.835900   -0.790706   -0.736291   -0.672775   -0.601122   -0.523132   -0.441601   -0.361083  -0.206555  -0.096130 -0.066948
  -342.0         X   0.094349   0.093979   0.093610   0.093244   0.092878    12.432800    12.354100    12.275900    12.198600    12.122100    12.046400    11.971500    11.897300    11.824000    11.751400    11.679600    11.608400    11.538100    11.468400    11.399400    -1.012290    -1.009000    -1.007330    -1.004560    -1.000700    -0.995775    -0.989266    -0.980693    -0.969619    -0.955162    -0.936581    -0.912850    -0.882827   -0.845475   -0.799743   -0.744682   -0.680412   -0.607911   -0.529003   -0.446516   -0.365063  -0.208769  -0.097122 -0.067628
  -340.0         X   0.095292   0.094918   0.094546   0.094175   0.093806    12.566700    12.487100    12.408100    12.329800    12.252400    12.175900    12.100100    12.025100    11.950900    11.877500    11.804900    11.732900    11.661700    11.591300    11.521500    -1.024020    -1.020680    -1.018990    -1.016190    -1.012280    -1.007300    -1.000710    -0.992036    -0.980829    -0.966199    -0.947394    -0.923379    -0.892996   -0.855197   -0.808918   -0.753200   -0.688165   -0.614804   -0.534962   -0.451505   -0.369101  -0.211014  -0.098128 -0.068318
  -338.0         X   0.096247   0.095869   0.095493   0.095119   0.094746    12.702500    12.622100    12.542100    12.463000    12.384700    12.307200    12.230600    12.154800    12.079700    12.005500    11.932000    11.859200    11.787200    11.715900    11.645300    -1.035920    -1.032550    -1.030840    -1.028000    -1.024050    -1.019000    -1.012340    -1.003550    -0.992213    -0.977406    -0.958376    -0.934071    -0.903323   -0.865070   -0.818236   -0.761850   -0.696037   -0.621801   -0.541011   -0.456569   -0.373200  -0.213291  -0.099149 -0.069016
