Name:B X_Dim:300 Y_Dim:600 Conductance:1000.0

### Channel Times ###
      Start      End
0   -1.9505  -1.9495
1   -1.8505  -1.8495
2   -1.7505  -1.7495
3   -1.6505  -1.6495
4   -1.5505  -1.5495
5   -1.4500  -1.4490
6   -1.3505  -1.3495
7   -1.2505  -1.2495
8   -1.1505  -1.1495
9   -1.0505  -1.0495
10  -0.9505  -0.9495
11  -0.8505  -0.8495
12  -0.7505  -0.7495
13  -0.6505  -0.6495
14  -0.5505  -0.5495
15  -0.4505  -0.4495
16  -0.3505  -0.3495
17  -0.2505  -0.2495
18  -0.1505  -0.1495
19  -0.0505  -0.0495
20   0.0250   0.0260
21   0.0545   0.0555
22   0.0695   0.0705
23   0.0945   0.0955
24   0.1295   0.1305
25   0.1745   0.1755
26   0.2345   0.2355
27   0.3145   0.3155
28   0.4195   0.4205
29   0.5595   0.5605
30   0.7445   0.7455
31   0.9895   0.9905
32   1.3145   1.3155
33   1.7445   1.7455
34   2.3145   2.3155
35   3.0745   3.0755
36   4.0845   4.0855
37   5.4245   5.4255
38   7.2045   7.2055
39   9.5695   9.5705
40  12.6595  12.6605
41  22.7295  22.7305
42  39.3945  39.3955
43  48.1145  48.1155

### Data ###
 Station Component          0          1          2          3          4             5             6             7             8             9            10            11            12            13            14            15            16            17            18            19           20           21           22           23           24           25           26           27           28           29           30           31           32          33          34          35          36          37          38          39          40          41         42         43
  -400.0         X   0.158446   0.157965   0.157485   0.157007   0.156531     16.702200     16.618100     16.534300     16.451400     16.369300     16.288000     16.207500     16.127700     16.048700     15.970500     15.892900     15.816100     15.740000     15.664600     15.589800    -1.033460    -1.030280    -1.028670    -1.025990    -1.022260    -1.017500    -1.011200    -1.002910    -0.992205    -0.978221    -0.960244    -0.937275    -0.908204   -0.872013   -0.827664   -0.774206   -0.711708   -0.641049   -0.563901   -0.482889   -0.402362   -0.245179  -0.127749  -0.094831
  -398.0         X   0.159832   0.159346   0.158862   0.158380   0.157899     16.857000     16.772100     16.687500     16.603800     16.520800     16.438700     16.357400     16.276800     16.197000     16.118000     16.039700     15.962100     15.885200     15.809100     15.733600    -1.043950    -1.040730    -1.039100    -1.036390    -1.032620    -1.027810    -1.021450    -1.013080    -1.002250    -0.988125    -0.969959    -0.946750    -0.917374   -0.880805   -0.835993   -0.781979   -0.718830   -0.647436   -0.569489   -0.487640   -0.406287   -0.247512  -0.128923  -0.095689
  -396.0         X   0.161234   0.160743   0.160255   0.159768   0.159283     17.013800     16.927900     16.842500     16.757900     16.674200     16.591300     16.509100     16.427700     16.347200     16.267300     16.188200     16.109900     16.032200     15.955300     15.879100    -1.054570    -1.051320    -1.049670    -1.046940    -1.043130    -1.038260    -1.031840    -1.023370    -1.012440    -0.998161    -0.979805    -0.956353    -0.926669   -0.889716   -0.844435   -0.789855   -0.726046   -0.653908   -0.575150   -0.492453   -0.410263   -0.249873  -0.130111  -0.096557
  -394.0         X   0.162651   0.162156   0.161663   0.161172   0.160682     17.172400     17.085700     16.999400     16.914000     16.829400     16.745700     16.662700     16.580500     16.499100     16.418500     16.338600     16.259500     16.181000     16.103300     16.026400    -1.065340    -1.062050    -1.060390    -1.057620    -1.053770    -1.048860    -1.042370    -1.033810    -1.022760    -1.008330    -0.989784    -0.966085    -0.936088   -0.898747   -0.852990   -0.797836   -0.733358   -0.660465   -0.580886   -0.497330   -0.414290   -0.252265  -0.131313  -0.097435
  -392.0         X   0.164085   0.163586   0.163088   0.162592   0.162098     17.333000     17.245500     17.158300     17.072000     16.986600     16.902000     16.818200     16.735200     16.653000     16.571500     16.490800     16.410900     16.331700     16.253200     16.175500    -1.076250    -1.072930    -1.071250    -1.068450    -1.064560    -1.059600    -1.053040    -1.044390    -1.033230    -1.018640    -0.999898    -0.975949    -0.945635   -0.907900   -0.861660   -0.805925   -0.740769   -0.667110   -0.586697   -0.502270   -0.418370   -0.254687  -0.132531  -0.098323
  -390.0         X   0.165536   0.165032   0.164530   0.164029   0.163530     17.495700     17.407200     17.319200     17.232000     17.145700     17.060300     16.975600     16.891800     16.808700     16.726500     16.645000     16.564200     16.484200     16.404900     16.326400    -1.087310    -1.083960    -1.082260    -1.079430    -1.075500    -1.070480    -1.063850    -1.055120    -1.043830    -1.029090    -1.010150    -0.985946    -0.955312   -0.917177   -0.870447   -0.814123   -0.748279   -0.673844   -0.592586   -0.507276   -0.422503   -0.257139  -0.133763  -0.099223
  -388.0         X   0.167004   0.166495   0.165988   0.165483   0.164979     17.660300     17.570900     17.482000     17.394000     17.306800     17.220500     17.135000     17.050300     16.966400     16.883300     16.801000     16.719400     16.638600     16.558500     16.479200    -1.098520    -1.095130    -1.093420    -1.090560    -1.086590    -1.081520    -1.074820    -1.065990    -1.054580    -1.039690    -1.020540    -0.996081    -0.965120   -0.926580   -0.879354   -0.822432   -0.755890   -0.680669   -0.598554   -0.512348   -0.426690   -0.259623  -0.135010  -0.100133
  -386.0         X   0.168488   0.167975   0.167463   0.166953   0.166445     17.827000     17.736700     17.646900     17.558000     17.469900     17.382700     17.296300     17.210800     17.126000     17.042100     16.958900     16.876600     16.794900     16.714100     16.633900    -1.109890    -1.106460    -1.104730    -1.101850    -1.097830    -1.092700    -1.085930    -1.077010    -1.065480    -1.050430    -1.031080    -1.006350    -0.975063   -0.936111   -0.888382   -0.830854   -0.763604   -0.687585   -0.604602   -0.517488   -0.430933   -0.262139  -0.136272  -0.101054
  -384.0         X   0.169990   0.169472   0.168955   0.168440   0.167928     17.995800     17.904600     17.813900     17.724000     17.635100     17.547000     17.459700     17.373300     17.287700     17.202900     17.118900     17.035700     16.953200     16.871500     16.790500    -1.121410    -1.117950    -1.116200    -1.113280    -1.109220    -1.104040    -1.097200    -1.088180    -1.076530    -1.061310    -1.041750    -1.016770    -0.985141   -0.945772   -0.897533   -0.839390   -0.771423   -0.694594   -0.610730   -0.522695   -0.435231   -0.264687  -0.137550  -0.101987
  -382.0         X   0.171510   0.170986   0.170465   0.169945   0.169428     18.166700     18.074600     17.982900     17.892200     17.802300     17.713300     17.625100     17.537800     17.451300     17.365700     17.280800     17.196700     17.113400     17.030900     16.949100    -1.133100    -1.129600    -1.127820    -1.124880    -1.120780    -1.115540    -1.108620    -1.099500    -1.087730    -1.072350    -1.052580    -1.027320    -0.995358   -0.955566   -0.906809   -0.848043   -0.779348   -0.701698   -0.616941   -0.527973   -0.439586   -0.267268  -0.138844  -0.102931
  -380.0         X   0.173047   0.172519   0.171992   0.171468   0.170945     18.339800     18.246700     18.154100     18.062400     17.971600     17.881700     17.792600     17.704400     17.617100     17.530500     17.444800     17.359900     17.275700     17.192300     17.109700    -1.144940    -1.141400    -1.139610    -1.136630    -1.132490    -1.127190    -1.120200    -1.110980    -1.099080    -1.083540    -1.063550    -1.038030    -1.005720   -0.965495   -0.916212   -0.856814   -0.787381   -0.708899   -0.623236   -0.533321   -0.443999   -0.269882  -0.140154  -0.103886
  -378.0         X   0.174603   0.174069   0.173538   0.173008   0.172481     18.515000     18.421000     18.327400     18.234800     18.143000     18.052200     17.962200     17.873100     17.784900     17.697400     17.610800     17.525000     17.440000     17.355800     17.272300    -1.156950    -1.153370    -1.151560    -1.148550    -1.144360    -1.139010    -1.131940    -1.122620    -1.110590    -1.094880    -1.074680    -1.048880    -1.016220   -0.975561   -0.925745   -0.865706   -0.795524   -0.716198   -0.629616   -0.538740   -0.448470   -0.272529  -0.141480  -0.104853
  -376.0         X   0.176176   0.175638   0.175101   0.174567   0.174034     18.692500     18.597500     18.503000     18.409400     18.316700     18.224900     18.134000     18.044000     17.954800     17.866400     17.778900     17.692200     17.606300     17.521200     17.436900    -1.169130    -1.165510    -1.163680    -1.160640    -1.156400    -1.150990    -1.143840    -1.134430    -1.122260    -1.106380    -1.085960    -1.059880    -1.026860   -0.985766   -0.935410   -0.874720   -0.803779   -0.723596   -0.636082   -0.544233   -0.453001   -0.275211  -0.142823  -0.105832
  -374.0         X   0.177769   0.177225   0.176683   0.176144   0.175606     18.872200     18.776200     18.680700     18.586100     18.492500     18.399700     18.307900     18.216900     18.126800     18.037600     17.949200     17.861600     17.774800     17.688800     17.603600    -1.181470    -1.177820    -1.175970    -1.172890    -1.168610    -1.163140    -1.155910    -1.146390    -1.134100    -1.118040    -1.097400    -1.071030    -1.037660   -0.996113   -0.945208   -0.883858   -0.812147   -0.731096   -0.642637   -0.549800   -0.457593   -0.277928  -0.144183  -0.106822
  -372.0         X   0.179380   0.178831   0.178284   0.177739   0.177197     19.054200     18.957200     18.860700     18.765200     18.670500     18.576800     18.484000     18.392100     18.301100     18.210900     18.121600     18.033100     17.945400     17.858500     17.772400    -1.193990    -1.190300    -1.188430    -1.185320    -1.180990    -1.175460    -1.168150    -1.158530    -1.146100    -1.129870    -1.109000    -1.082340    -1.048600   -1.006600   -0.955143   -0.893124   -0.820631   -0.738698   -0.649281   -0.555442   -0.462246   -0.280681  -0.145559  -0.107825
  -370.0         X   0.181010   0.180456   0.179904   0.179354   0.178806     19.238600     19.140600     19.043000     18.946500     18.850900     18.756200     18.662400     18.569500     18.477600     18.386400     18.296200     18.206800     18.118200     18.030400     17.943400    -1.206690    -1.202950    -1.201060    -1.197920    -1.193540    -1.187950    -1.180560    -1.170840    -1.158270    -1.141860    -1.120760    -1.093810    -1.059700   -1.017240   -0.965217   -0.902518   -0.829233   -0.746406   -0.656016   -0.561161   -0.466962   -0.283469  -0.146953  -0.108840
  -368.0         X   0.182660   0.182100   0.181543   0.180988   0.180434     19.425300     19.326200     19.227700     19.130100     19.033500     18.937800     18.843100     18.749200     18.656300     18.564200     18.473000     18.382600     18.293100     18.204400     18.116500    -1.219560    -1.215790    -1.213870    -1.210690    -1.206270    -1.200620    -1.193150    -1.183310    -1.170610    -1.154020    -1.132690    -1.105440    -1.070950   -1.028030   -0.975431   -0.912043   -0.837954   -0.754220   -0.662843   -0.566958   -0.471741   -0.286294  -0.148364  -0.109868
  -366.0         X   0.184329   0.183764   0.183201   0.182641   0.182082     19.614300     19.514300     19.414700     19.316100     19.218500     19.121800     19.026000     18.931200     18.837300     18.744200     18.652100     18.560800     18.470300     18.380700     18.291900    -1.232620    -1.228800    -1.226870    -1.223650    -1.219180    -1.213460    -1.205910    -1.195970    -1.183120    -1.166350    -1.144780    -1.117230    -1.082370   -1.038970   -0.985788   -0.921701   -0.846796   -0.762142   -0.669765   -0.572834   -0.476585   -0.289156  -0.149794  -0.110909
  -364.0         X   0.186018   0.185448   0.184880   0.184314   0.183749     19.805900     19.704700     19.604100     19.504500     19.405800     19.308100     19.211400     19.115500     19.020600     18.926600     18.833500     18.741200     18.649800     18.559200     18.469500    -1.245860    -1.242000    -1.240040    -1.236800    -1.232270    -1.226490    -1.218860    -1.208810    -1.195820    -1.178860    -1.157050    -1.129200    -1.093940   -1.050060   -0.996291   -0.931495   -0.855762   -0.770175   -0.676782   -0.578790   -0.481495   -0.292055  -0.151241  -0.111962
  -362.0         X   0.187728   0.187152   0.186578   0.186006   0.185437     19.999900     19.897700     19.796000     19.695300     19.595600     19.496800     19.399100     19.302200     19.206300     19.111300     19.017200     18.923900     18.831600     18.740000     18.649300    -1.259290    -1.255390    -1.253410    -1.250120    -1.245550    -1.239710    -1.231990    -1.221820    -1.208690    -1.191540    -1.169490    -1.141330    -1.105680   -1.061310   -1.006940   -0.941426   -0.864853   -0.778319   -0.683897   -0.584829   -0.486472   -0.294993  -0.152706  -0.113029
  -360.0         X   0.189458   0.188876   0.188297   0.187720   0.187144     20.196400     20.093100     19.990300     19.888500     19.787800     19.688000     19.589200     19.491300     19.394400     19.298400     19.203200     19.109000     19.015700     18.923200     18.831500    -1.272920    -1.268970    -1.266970    -1.263640    -1.259020    -1.253110    -1.245310    -1.235030    -1.221740    -1.204400    -1.182110    -1.153630    -1.117580   -1.072720   -1.017740   -0.951498   -0.874073   -0.786578   -0.691110   -0.590950   -0.491516   -0.297970  -0.154191  -0.114109
  -358.0         X   0.191208   0.190621   0.190036   0.189453   0.188873     20.395400     20.291000     20.187200     20.084300     19.982500     19.881600     19.781800     19.682800     19.584900     19.487800     19.391700     19.296500     19.202100     19.108700     19.016000    -1.286730    -1.282740    -1.280720    -1.277360    -1.272680    -1.266710    -1.258810    -1.248420    -1.234990    -1.217450    -1.194910    -1.166110    -1.129660   -1.084290   -1.028700   -0.961712   -0.883422   -0.794952   -0.698424   -0.597157   -0.496630   -0.300987  -0.155694  -0.115202
  -356.0         X   0.192980   0.192387   0.191797   0.191208   0.190622     20.597100     20.491600     20.386600     20.282600     20.179700     20.077800     19.976800     19.876900     19.777900     19.679800     19.582600     19.486400     19.391000     19.296600     19.203000    -1.300750    -1.296710    -1.294670    -1.291270    -1.286540    -1.280500    -1.272520    -1.262000    -1.248420    -1.230690    -1.207890    -1.178760    -1.141900   -1.096020   -1.039810   -0.972071   -0.892904   -0.803444   -0.705840   -0.603449   -0.501813   -0.304044  -0.157216  -0.116309
  -354.0         X   0.194773   0.194175   0.193578   0.192984   0.192392     20.801400     20.694700     20.588600     20.483500     20.379500     20.276500     20.174500     20.073400     19.973300     19.874200     19.776000     19.678800     19.582400     19.486900     19.392300    -1.314970    -1.310880    -1.308820    -1.305380    -1.300600    -1.294490    -1.286410    -1.275780    -1.262050    -1.244110    -1.221060    -1.191600    -1.154330   -1.107930   -1.051080   -0.982578   -0.902520   -0.812056   -0.713360   -0.609829   -0.507068   -0.307141  -0.158758  -0.117430
  -352.0         X   0.196588   0.195984   0.195381   0.194781   0.194183     21.008300     20.900500     20.793300     20.687100     20.581900     20.477800     20.374700     20.272500     20.171400     20.071200     19.971900     19.873600     19.776200     19.679700     19.584100    -1.329390    -1.325260    -1.323170    -1.319690    -1.314860    -1.308680    -1.300510    -1.289760    -1.275870    -1.257730    -1.234410    -1.204630    -1.166930   -1.120000   -1.062510   -0.993235   -0.912273   -0.820790   -0.720986   -0.616297   -0.512396   -0.310280  -0.160320  -0.118565
  -350.0         X   0.198425   0.197815   0.197206   0.196600   0.195996     21.218000     21.109000     21.000600     20.893300     20.787000     20.681700     20.577500     20.474300     20.372000     20.270700     20.170400     20.071000     19.972600     19.875000     19.778400    -1.344020    -1.339850    -1.337730    -1.334220    -1.329320    -1.323070    -1.314820    -1.303940    -1.289890    -1.271550    -1.247960    -1.217840    -1.179710   -1.132250   -1.074110   -1.004040   -0.922165   -0.829648   -0.728719   -0.622857   -0.517797   -0.313461  -0.161901  -0.119714
  -348.0         X   0.200285   0.199668   0.199053   0.198441   0.197831     21.430400     21.320300     21.210700     21.102200     20.994700     20.888300     20.783000     20.678600     20.575300     20.472900     20.371500     20.271000     20.171500     20.072900     19.975200    -1.358870    -1.354650    -1.352510    -1.348950    -1.344000    -1.337680    -1.329330    -1.318330    -1.304120    -1.285570    -1.261710    -1.231240    -1.192680   -1.144680   -1.085870   -1.015010   -0.932199   -0.838632   -0.736562   -0.629508   -0.523274   -0.316685  -0.163504  -0.120878
  -346.0         X   0.202167   0.201544   0.200923   0.200305   0.199689     21.645700     21.534300     21.423500     21.313800     21.205200     21.097700     20.991100     20.885700     20.781200     20.677700     20.575200     20.473700     20.373100     20.273400     20.174600    -1.373930    -1.369660    -1.367490    -1.363900    -1.358890    -1.352500    -1.344050    -1.332930    -1.318550    -1.299790    -1.275660    -1.244840    -1.205830   -1.157280   -1.097800   -1.026130   -0.942376   -0.847744   -0.744516   -0.636253   -0.528826   -0.319953  -0.165127  -0.122057
  -344.0         X   0.204071   0.203442   0.202816   0.202191   0.201569     21.863800     21.751200     21.639200     21.528300     21.418500     21.309700     21.202100     21.095400     20.989800     20.885200     20.781600     20.678900     20.577300     20.476500     20.376700    -1.389220    -1.384890    -1.382700    -1.379070    -1.374000    -1.367540    -1.358990    -1.347740    -1.333200    -1.314220    -1.289810    -1.258640    -1.219180   -1.170070   -1.109910   -1.037420   -0.952701   -0.856987   -0.752583   -0.643093   -0.534456   -0.323264  -0.166771  -0.123251
  -342.0         X   0.206000   0.205364   0.204731   0.204101   0.203472     22.084700     21.970900     21.857700     21.745600     21.634600     21.524600     21.415800     21.308000     21.201200     21.095500     20.990700     20.886900     20.784100     20.682300     20.581400    -1.404720    -1.400350    -1.398140    -1.394460    -1.389330    -1.382790    -1.374150    -1.362770    -1.348060    -1.328860    -1.304170    -1.272630    -1.232720   -1.183050   -1.122190   -1.048860   -0.963174   -0.866363   -0.760765   -0.650029   -0.540165   -0.326621  -0.168436  -0.124460
  -340.0         X   0.207952   0.207310   0.206670   0.206033   0.205399     22.308600     22.193600     22.079100     21.965700     21.853500     21.742400     21.632300     21.523400     21.415400     21.308500     21.202600     21.097700     20.993800     20.890800     20.788800    -1.420460    -1.416040    -1.413800    -1.410070    -1.404890    -1.398270    -1.389530    -1.378010    -1.363140    -1.343710    -1.318740    -1.286840    -1.246460   -1.196210   -1.134650   -1.060480   -0.973799   -0.875874   -0.769065   -0.657064   -0.545954   -0.330023  -0.170123  -0.125684
