Name:A X_Dim:300 Y_Dim:600 Conductance:100.0

### Channel Times ###
      Start      End
0   -1.9505  -1.9495
1   -1.8505  -1.8495
2   -1.7505  -1.7495
3   -1.6505  -1.6495
4   -1.5505  -1.5495
5   -1.4500  -1.4490
6   -1.3505  -1.3495
7   -1.2505  -1.2495
8   -1.1505  -1.1495
9   -1.0505  -1.0495
10  -0.9505  -0.9495
11  -0.8505  -0.8495
12  -0.7505  -0.7495
13  -0.6505  -0.6495
14  -0.5505  -0.5495
15  -0.4505  -0.4495
16  -0.3505  -0.3495
17  -0.2505  -0.2495
18  -0.1505  -0.1495
19  -0.0505  -0.0495
20   0.0250   0.0260
21   0.0545   0.0555
22   0.0695   0.0705
23   0.0945   0.0955
24   0.1295   0.1305
25   0.1745   0.1755
26   0.2345   0.2355
27   0.3145   0.3155
28   0.4195   0.4205
29   0.5595   0.5605
30   0.7445   0.7455
31   0.9895   0.9905
32   1.3145   1.3155
33   1.7445   1.7455
34   2.3145   2.3155
35   3.0745   3.0755
36   4.0845   4.0855
37   5.4245   5.4255
38   7.2045   7.2055
39   9.5695   9.5705
40  12.6595  12.6605
41  22.7295  22.7305
42  39.3945  39.3955
43  48.1145  48.1155

### Data ###
 Station Component             0             1             2             3             4             5             6            7            8            9           10           11           12           13           14           15           16           17           18           19           20           21           22           23           24           25           26           27           28           29           30           31           32           33          34          35          36          37         38         39         40        41            42            43
  -400.0         X  4.275370e-05  4.180480e-05  4.087690e-05  3.996980e-05  3.908280e-05     16.170600     15.403400    14.698700    14.051000    13.452500    12.896800    12.378800    11.894000    11.439100    11.010800    10.606500    10.224200     9.861860     9.517800     9.190590    -7.421170    -7.270570    -7.196130    -7.075130    -6.911860    -6.711790    -6.460860    -6.151500    -5.783520    -5.349280    -4.855020    -4.307640    -3.719600    -3.110710   -2.502090   -1.916040   -1.381580   -0.923872  -0.560499  -0.299455  -0.137034 -0.012264 -2.685600e-04 -3.769200e-05
  -398.0         X  4.304790e-05  4.209240e-05  4.115810e-05  4.024460e-05  3.935150e-05     16.320300     15.545500    14.833800    14.179700    13.575300    13.014200    12.491100    12.001700    11.542300    11.109800    10.701700    10.315700     9.949930     9.602600     9.272280    -7.493460    -7.341320    -7.266110    -7.143870    -6.978920    -6.776800    -6.523290    -6.210770    -5.839050    -5.400390    -4.901130    -4.348250    -3.754350    -3.139450   -2.524910   -1.933240   -1.393750   -0.931836  -0.565213  -0.301904  -0.138123 -0.012355 -2.704410e-04 -3.795100e-05
  -396.0         X  4.334460e-05  4.238240e-05  4.144160e-05  4.052180e-05  3.962250e-05     16.471900     15.689300    14.970500    14.310000    13.699600    13.133000    12.604700    12.110600    11.646700    11.210100    10.798100    10.408400    10.039000     9.688390     9.354930    -7.566700    -7.412980    -7.337000    -7.213500    -7.046850    -6.842640    -6.586530    -6.270810    -5.895280    -5.452140    -4.947830    -4.389370    -3.789530    -3.168550   -2.548000   -1.950640   -1.406060   -0.939890  -0.569978  -0.304380  -0.139222 -0.012448 -2.723370e-04 -3.821220e-05
  -394.0         X  4.364380e-05  4.267490e-05  4.172760e-05  4.080140e-05  3.989580e-05     16.625300     15.834800    15.108900    14.441800    13.825400    13.253200    12.719800    12.220800    11.752400    11.311500    10.895500    10.502100    10.129200     9.775190     9.438550    -7.640890    -7.485580    -7.408810    -7.284020    -7.115650    -6.909340    -6.650590    -6.331610    -5.952230    -5.504560    -4.995110    -4.431000    -3.825150    -3.198000   -2.571370   -1.968250   -1.418510   -0.948036  -0.574796  -0.306883  -0.140333 -0.012540 -2.742500e-04 -3.847560e-05
  -392.0         X  4.394550e-05  4.296990e-05  4.201600e-05  4.108330e-05  4.017140e-05     16.780600     15.982200    15.249000    14.575300    13.952700    13.374900    12.836200    12.332300    11.859400    11.414200    10.994200    10.596900    10.220400     9.863020     9.523150    -7.716040    -7.559120    -7.481550    -7.355470    -7.185350    -6.976900    -6.715470    -6.393200    -6.009910    -5.557650    -5.043000    -4.473160    -3.861210    -3.227810   -2.595020   -1.986060   -1.431110   -0.956274  -0.579668  -0.309412  -0.141456 -0.012634 -2.761800e-04 -3.874130e-05
  -390.0         X  4.424990e-05  4.326740e-05  4.230680e-05  4.136770e-05  4.044940e-05     16.937900     16.131400    15.390900    14.710300    14.081600    13.498000    12.954100    12.445200    11.967600    11.518100    11.094000    10.692900    10.312700     9.951890     9.608760    -7.792180    -7.633620    -7.555250    -7.427850    -7.255960    -7.045340    -6.781200    -6.455590    -6.068330    -5.611420    -5.091490    -4.515860    -3.897720    -3.258000   -2.618960   -2.004090   -1.443860   -0.964605  -0.584593  -0.311968  -0.142590 -0.012729 -2.781270e-04 -3.900920e-05
  -388.0         X  4.455680e-05  4.356750e-05  4.260020e-05  4.165440e-05  4.072980e-05     17.097100     16.282400    15.534400    14.847100    14.212100    13.622700    13.073300    12.559400    12.077200    11.623300    11.195000    10.790000    10.406200    10.041800     9.695380    -7.869320    -7.709100    -7.629900    -7.501180    -7.327490    -7.114680    -6.847780    -6.518780    -6.127510    -5.665880    -5.140600    -4.559090    -3.934690    -3.288550   -2.643190   -2.022340   -1.456760   -0.973032  -0.589573  -0.314551  -0.143735 -0.012824 -2.800910e-04 -3.927940e-05
  -386.0         X  4.486630e-05  4.387000e-05  4.289600e-05  4.194360e-05  4.101250e-05     17.258200     16.435300    15.679800    14.985500    14.344200    13.748900    13.194100    12.675100    12.188100    11.729700    11.297200    10.888200    10.500700    10.132800     9.783030    -7.947470    -7.785570    -7.705540    -7.575470    -7.399960    -7.184920    -6.915230    -6.582800    -6.187460    -5.721040    -5.190350    -4.602870    -3.972120    -3.319490   -2.667720   -2.040800   -1.469800   -0.981556  -0.594608  -0.317163  -0.144893 -0.012921 -2.820720e-04 -3.955190e-05
  -384.0         X  4.517850e-05  4.417520e-05  4.319430e-05  4.223530e-05  4.129760e-05     17.421400     16.590200    15.827000    15.125700    14.477900    13.876600    13.316300    12.792100    12.300300    11.837400    11.400700    10.987700    10.596400    10.224900     9.871730    -8.026660    -7.863050    -7.782180    -7.650730    -7.473380    -7.256080    -6.983560    -6.647650    -6.248190    -5.776910    -5.240730    -4.647210    -4.010030    -3.350810   -2.692550   -2.059480   -1.483010   -0.990177  -0.599699  -0.319802  -0.146062 -0.013018 -2.840700e-04 -3.982670e-05
  -382.0         X  4.549330e-05  4.448300e-05  4.349520e-05  4.252940e-05  4.158520e-05     17.586700     16.746900    15.975900    15.267600    14.613200    14.005900    13.440000    12.910600    12.413900    11.946400    11.505400    11.088300    10.693200    10.318100     9.961490    -8.106890    -7.941550    -7.859830    -7.727000    -7.547770    -7.328180    -7.052790    -6.713350    -6.309700    -5.833510    -5.291760    -4.692120    -4.048420    -3.382520   -2.717680   -2.078400   -1.496360   -0.998897  -0.604847  -0.322470  -0.147244 -0.013116 -2.860860e-04 -4.010380e-05
  -380.0         X  4.581080e-05  4.479340e-05  4.379870e-05  4.282610e-05  4.187520e-05     17.754000     16.905600    16.126800    15.411200    14.750200    14.136800    13.565200    13.030500    12.528900    12.056700    11.611400    11.190200    10.791200    10.412400    10.052300    -8.188200    -8.021100    -7.938510    -7.804270    -7.623140    -7.401220    -7.122930    -6.779920    -6.372020    -5.890840    -5.343440    -4.737600    -4.087290    -3.414620   -2.743130   -2.097540   -1.509880   -1.007720  -0.610052  -0.325166  -0.148437 -0.013216 -2.881190e-04 -4.038330e-05
  -378.0         X  4.613100e-05  4.510650e-05  4.410470e-05  4.312530e-05  4.216770e-05     17.923400     17.066300    16.279500    15.556600    14.889000    14.269400    13.692000    13.151900    12.645200    12.168400    11.718600    11.293300    10.890400    10.507900    10.144200    -8.270580    -8.101700    -8.018230    -7.882560    -7.699520    -7.475240    -7.194000    -6.847350    -6.435160    -5.948920    -5.395800    -4.783660    -4.126650    -3.447130   -2.768880   -2.116910   -1.523550   -1.016640  -0.615316  -0.327892  -0.149644 -0.013316 -2.901700e-04 -4.066520e-05
  -376.0         X  4.645400e-05  4.542220e-05  4.441330e-05  4.342700e-05  4.246260e-05     18.095000     17.229100    16.434200    15.703900    15.029400    14.403500    13.820300    13.274800    12.763100    12.281500    11.827200    11.397700    10.990700    10.604500    10.237300    -8.354060    -8.183380    -8.099020    -7.961900    -7.776900    -7.550240    -7.266000    -6.915680    -6.499120    -6.007760    -5.448840    -4.830320    -4.166520    -3.480050   -2.794960   -2.136520   -1.537390   -1.025670  -0.620639  -0.330647  -0.150862 -0.013417 -2.922390e-04 -4.094950e-05
  -374.0         X  4.677970e-05  4.574060e-05  4.472460e-05  4.373130e-05  4.276010e-05     18.268800     17.393800    16.590700    15.853000    15.171600    14.539300    13.950200    13.399200    12.882300    12.395900    11.937100    11.503300    11.092300    10.702300    10.331400    -8.438660    -8.266150    -8.180890    -8.042300    -7.855320    -7.626240    -7.338970    -6.984910    -6.563930    -6.067370    -5.502560    -4.877570    -4.206890    -3.513390   -2.821360   -2.156360   -1.551390   -1.034800  -0.626021  -0.333432  -0.152094 -0.013519 -2.943260e-04 -4.123620e-05
  -372.0         X  4.710820e-05  4.606170e-05  4.503860e-05  4.403820e-05  4.306020e-05     18.444700     17.560700    16.749300    16.003900    15.315600    14.676900    14.081700    13.525200    13.003000    12.511800    12.048300    11.610200    11.195100    10.801200    10.426700    -8.524400    -8.350030    -8.263850    -8.123780    -7.934790    -7.703250    -7.412900    -7.055070    -6.629600    -6.127770    -5.556990    -4.925440    -4.247790    -3.547140   -2.848090   -2.176450   -1.565560   -1.044030  -0.631465  -0.336248  -0.153338 -0.013622 -2.964320e-04 -4.152540e-05
  -370.0         X  4.743950e-05  4.638560e-05  4.535520e-05  4.434770e-05  4.336270e-05     18.622900     17.729700    16.909900    16.156800    15.461400    14.816100    14.214900    13.652700    13.125300    12.629000    12.161000    11.718400    11.299200    10.901400    10.523200    -8.611300    -8.435050    -8.347940    -8.206350    -8.015320    -7.781290    -7.487820    -7.126150    -6.696130    -6.188960    -5.612130    -4.973940    -4.289200    -3.581320   -2.875150   -2.196780   -1.579900   -1.053380  -0.636969  -0.339094  -0.154596 -0.013726 -2.985550e-04 -4.181700e-05
  -368.0         X  4.777360e-05  4.671220e-05  4.567450e-05  4.465990e-05  4.366790e-05     18.803400     17.900800    17.072500    16.311600    15.609000    14.957100    14.349700    13.781800    13.249000    12.747700    12.275000    11.828000    11.404600    11.002800    10.620800    -8.699370    -8.521210    -8.433150    -8.290030    -8.096940    -7.860380    -7.563750    -7.198180    -6.763550    -6.250960    -5.668000    -5.023060    -4.331150    -3.615940   -2.902550   -2.217370   -1.594410   -1.062830  -0.642536  -0.341971  -0.155867 -0.013831 -3.006980e-04 -4.211110e-05
  -366.0         X  4.811050e-05  4.704160e-05  4.599650e-05  4.497470e-05  4.397570e-05     18.986200     18.074100    17.237100    16.468400    15.758500    15.099800    14.486200    13.912500    13.374300    12.867900    12.390400    11.938900    11.511200    11.105400    10.719600    -8.788630    -8.608530    -8.519520    -8.374850    -8.179660    -7.940530    -7.640690    -7.271180    -6.831870    -6.313780    -5.724600    -5.072820    -4.373650    -3.651000   -2.930290   -2.238200   -1.609100   -1.072400  -0.648167  -0.344880  -0.157151 -0.013937 -3.028590e-04 -4.240760e-05
  -364.0         X  4.845040e-05  4.737380e-05  4.632130e-05  4.529220e-05  4.428600e-05     19.171300     18.249700    17.403900    16.627100    15.909800    15.244400    14.624500    14.044800    13.501100    12.989600    12.507200    12.051100    11.619200    11.209300    10.819600    -8.879110    -8.697040    -8.607060    -8.460810    -8.263500    -8.021770    -7.718680    -7.345160    -6.901100    -6.377430    -5.781940    -5.123240    -4.416690    -3.686500   -2.958390   -2.259300   -1.623960   -1.082070  -0.653861  -0.347820  -0.158448 -0.014044 -3.050390e-04 -4.270680e-05
  -362.0         X  4.879310e-05  4.770890e-05  4.664880e-05  4.561240e-05  4.459900e-05     19.358900     18.427500    17.572800    16.787800    16.063100    15.390800    14.764400    14.178800    13.629500    13.112800    12.625500    12.164800    11.728500    11.314400    10.920900    -8.970820    -8.786760    -8.695800    -8.547940    -8.348480    -8.104110    -7.797710    -7.420130    -6.971260    -6.441940    -5.840050    -5.174310    -4.460290    -3.722470   -2.986830   -2.280650   -1.639000   -1.091860  -0.659620  -0.350793  -0.159759 -0.014153 -3.072390e-04 -4.300840e-05
  -360.0         X  4.913880e-05  4.804680e-05  4.697910e-05  4.593530e-05  4.491470e-05     19.548800     18.607600    17.743800    16.950700    16.218300    15.539000    14.906200    14.314500    13.759600    13.237500    12.745200    12.279900    11.839100    11.420900    11.023400    -9.063790    -8.877700    -8.785740    -8.636260    -8.434610    -8.187570    -7.877820    -7.496120    -7.042360    -6.507300    -5.898930    -5.226060    -4.504460    -3.758890   -3.015640   -2.302270   -1.654230   -1.101770  -0.665444  -0.353798  -0.161084 -0.014262 -3.094570e-04 -4.331260e-05
  -358.0         X  4.948740e-05  4.838760e-05  4.731230e-05  4.626100e-05  4.523310e-05     19.741200     18.790000    17.917100    17.115500    16.375500    15.689100    15.049700    14.451900    13.891200    13.363800    12.866500    12.396400    11.951100    11.528600    11.127100    -9.158030    -8.969890    -8.876910    -8.725790    -8.521920    -8.272160    -7.959010    -7.573130    -7.114430    -6.573550    -5.958590    -5.278490    -4.549200    -3.795780   -3.044810   -2.324160   -1.669630   -1.111790  -0.671335  -0.356837  -0.162423 -0.014372 -3.116950e-04 -4.361950e-05
  -356.0         X  4.983890e-05  4.873120e-05  4.764820e-05  4.658940e-05  4.555420e-05     19.936200     18.974700    18.092600    17.282600    16.534700    15.841100    15.195000    14.591000    14.024500    13.491700    12.989200    12.514300    12.064500    11.637700    11.232100    -9.253570    -9.063350    -8.969340    -8.816550    -8.610420    -8.357910    -8.041310    -7.651200    -7.187460    -6.640680    -6.019040    -5.331610    -4.594530    -3.833150   -3.074350   -2.346320   -1.685230   -1.121930  -0.677294  -0.359909  -0.163777 -0.014483 -3.139530e-04 -4.392890e-05
  -354.0         X  5.019350e-05  4.907780e-05  4.798710e-05  4.692060e-05  4.587800e-05     20.133600     19.161900    18.270300    17.451700    16.696000    15.995100    15.342200    14.731900    14.159500    13.621200    13.113500    12.633700    12.179300    11.748200    11.338500    -9.350420    -9.158090    -9.063040    -8.908550    -8.700140    -8.444830    -8.124740    -7.730320    -7.261490    -6.708720    -6.080310    -5.385440    -4.640460    -3.871000   -3.104270   -2.368760   -1.701020   -1.132190  -0.683321  -0.363015  -0.165144 -0.014595 -3.162300e-04 -4.424090e-05
  -352.0         X  5.055110e-05  4.942740e-05  4.832880e-05  4.725470e-05  4.620450e-05     20.333700     19.351500    18.450400    17.623000    16.859300    16.151000    15.491300    14.874600    14.296200    13.752300    13.239400    12.754600    12.295600    11.860000    11.446100    -9.448620    -9.254140    -9.158030    -9.001830    -8.791100    -8.532950    -8.209310    -7.810520    -7.336520    -6.777670    -6.142400    -5.439990    -4.686990    -3.909340   -3.134570   -2.391480   -1.717000   -1.142570  -0.689417  -0.366155  -0.166526 -0.014709 -3.185270e-04 -4.455560e-05
  -350.0         X  5.091170e-05  4.977990e-05  4.867340e-05  4.759160e-05  4.653390e-05     20.536300     19.543500    18.632800    17.796600    17.024700    16.308900    15.642200    15.019100    14.434700    13.885000    13.366800    12.877100    12.413300    11.973300    11.555100    -9.548180    -9.351530    -9.254340    -9.096390    -8.883310    -8.622290    -8.295040    -7.891830    -7.412570    -6.847570    -6.205320    -5.495260    -4.734130    -3.948180   -3.165260   -2.414480   -1.733170   -1.153080  -0.695584  -0.369330  -0.167923 -0.014823 -3.208450e-04 -4.487300e-05
  -348.0         X  5.127530e-05  5.013540e-05  4.902090e-05  4.793130e-05  4.686600e-05     20.741600     19.738100    18.817500    17.972400    17.192300    16.468800    15.795100    15.165400    14.574900    14.019500    13.495900    13.001000    12.532400    12.087900    11.665500    -9.649120    -9.450270    -9.351990    -9.192270    -8.976800    -8.712860    -8.381950    -7.974250    -7.489670    -6.918410    -6.269100    -5.551270    -4.781900    -3.987530   -3.196340   -2.437770   -1.749550   -1.163710  -0.701821  -0.372541  -0.169334 -0.014939 -3.231820e-04 -4.519300e-05
  -346.0         X  5.164210e-05  5.049400e-05  4.937140e-05  4.827390e-05  4.720090e-05     20.949700     19.935200    19.004700    18.150500    17.362000    16.630800    15.950000    15.313600    14.716800    14.155600    13.626500    13.126600    12.653100    12.204000    11.777200    -9.751480    -9.550380    -9.451000    -9.289480    -9.071590    -8.804680    -8.470070    -8.057800    -7.567820    -6.990220    -6.333730    -5.608040    -4.830290    -4.027400   -3.227820   -2.461360   -1.766120   -1.174470  -0.708131  -0.375787  -0.170761 -0.015056 -3.255400e-04 -4.551580e-05
  -344.0         X  5.201200e-05  5.085550e-05  4.972490e-05  4.861950e-05  4.753870e-05     21.160400     20.134900    19.194300    18.330900    17.533900    16.794900    16.106800    15.463700    14.860600    14.293500    13.758900    13.253700    12.775300    12.321500    11.890300    -9.855260    -9.651890    -9.551390    -9.388040    -9.167700    -8.897780    -8.559410    -8.142510    -7.647050    -7.063010    -6.399250    -5.665560    -4.879340    -4.067780   -3.259710   -2.485240   -1.782900   -1.185360  -0.714514  -0.379069  -0.172203 -0.015173 -3.279190e-04 -4.584130e-05
  -342.0         X  5.238500e-05  5.122020e-05  5.008130e-05  4.896790e-05  4.787930e-05     21.374000     20.337300    19.386400    18.513600    17.708100    16.961200    16.265700    15.615700    15.006300    14.433200    13.892900    13.382400    12.899000    12.440500    12.004800    -9.960510    -9.754830    -9.653190    -9.487990    -9.265150    -8.992180    -8.649980    -8.228400    -7.727370    -7.136800    -6.465650    -5.723860    -4.929030    -4.108700   -3.292010   -2.509430   -1.799890   -1.196380  -0.720970  -0.382388  -0.173660 -0.015292 -3.303180e-04 -4.616950e-05
  -340.0         X  5.276120e-05  5.158790e-05  5.044080e-05  4.931930e-05  4.822290e-05     21.590400     20.542300    19.581100    18.698700    17.884500    17.129600    16.426600    15.769700    15.153800    14.574600    14.028600    13.512800    13.024300    12.561000    12.120800   -10.067200    -9.859210    -9.756410    -9.589340    -9.363960    -9.087900    -8.741830    -8.315470    -7.808800    -7.211600    -6.532960    -5.782950    -4.979400    -4.150150   -3.324730   -2.533920   -1.817080   -1.207530  -0.727502  -0.385744  -0.175133 -0.015413 -3.327390e-04 -4.650050e-05
