Name:C X_Dim:30 Y_Dim:600 Conductance:10000.0

### Channel Times ###
      Start      End
0   -1.9505  -1.9495
1   -1.8505  -1.8495
2   -1.7505  -1.7495
3   -1.6505  -1.6495
4   -1.5505  -1.5495
5   -1.4500  -1.4490
6   -1.3505  -1.3495
7   -1.2505  -1.2495
8   -1.1505  -1.1495
9   -1.0505  -1.0495
10  -0.9505  -0.9495
11  -0.8505  -0.8495
12  -0.7505  -0.7495
13  -0.6505  -0.6495
14  -0.5505  -0.5495
15  -0.4505  -0.4495
16  -0.3505  -0.3495
17  -0.2505  -0.2495
18  -0.1505  -0.1495
19  -0.0505  -0.0495
20   0.0250   0.0260
21   0.0545   0.0555
22   0.0695   0.0705
23   0.0945   0.0955
24   0.1295   0.1305
25   0.1745   0.1755
26   0.2345   0.2355
27   0.3145   0.3155
28   0.4195   0.4205
29   0.5595   0.5605
30   0.7445   0.7455
31   0.9895   0.9905
32   1.3145   1.3155
33   1.7445   1.7455
34   2.3145   2.3155
35   3.0745   3.0755
36   4.0845   4.0855
37   5.4245   5.4255
38   7.2045   7.2055
39   9.5695   9.5705
40  12.6595  12.6605
41  22.7295  22.7305
42  39.3945  39.3955
43  48.1145  48.1155

### Data ###
 Station Component         0         1         2         3         4          5          6          7          8          9         10         11         12         13         14         15         16         17         18         19        20        21        22        23        24        25        26        27        28        29        30        31        32        33        34        35        36        37        38        39        40        41        42        43
  -400.0         X  0.003946  0.003936  0.003927  0.003918  0.003908   0.325942   0.324993   0.324044   0.323100   0.322159   0.321222   0.320289   0.319361   0.318436   0.317516   0.316599   0.315686   0.314777   0.313872   0.312970 -0.009987 -0.009972 -0.009965 -0.009952 -0.009935 -0.009912 -0.009882 -0.009843 -0.009791 -0.009723 -0.009634 -0.009519 -0.009369 -0.009176 -0.008929 -0.008616 -0.008226 -0.007749 -0.007179 -0.006517 -0.005784 -0.004096 -0.002532 -0.002018
  -398.0         X  0.003988  0.003978  0.003969  0.003959  0.003950   0.329410   0.328452   0.327492   0.326538   0.325587   0.324640   0.323698   0.322759   0.321825   0.320894   0.319968   0.319045   0.318126   0.317211   0.316301 -0.010094 -0.010079 -0.010071 -0.010058 -0.010041 -0.010018 -0.009988 -0.009948 -0.009896 -0.009827 -0.009737 -0.009620 -0.009469 -0.009274 -0.009024 -0.008708 -0.008313 -0.007831 -0.007255 -0.006586 -0.005846 -0.004140 -0.002559 -0.002040
  -396.0         X  0.004030  0.004021  0.004011  0.004001  0.003992   0.332928   0.331960   0.330990   0.330025   0.329064   0.328108   0.327155   0.326206   0.325262   0.324321   0.323385   0.322452   0.321524   0.320599   0.319679 -0.010202 -0.010186 -0.010179 -0.010166 -0.010148 -0.010125 -0.010095 -0.010054 -0.010002 -0.009932 -0.009842 -0.009723 -0.009570 -0.009373 -0.009121 -0.008801 -0.008403 -0.007915 -0.007333 -0.006657 -0.005909 -0.004184 -0.002586 -0.002062
  -394.0         X  0.004073  0.004064  0.004054  0.004044  0.004035   0.336498   0.335519   0.334539   0.333564   0.332592   0.331625   0.330662   0.329704   0.328749   0.327798   0.326852   0.325909   0.324971   0.324036   0.323106 -0.010311 -0.010296 -0.010288 -0.010275 -0.010257 -0.010234 -0.010203 -0.010162 -0.010109 -0.010039 -0.009947 -0.009828 -0.009673 -0.009474 -0.009219 -0.008896 -0.008493 -0.008001 -0.007412 -0.006729 -0.005972 -0.004229 -0.002614 -0.002084
  -392.0         X  0.004117  0.004107  0.004098  0.004088  0.004078   0.340119   0.339130   0.338139   0.337153   0.336172   0.335194   0.334221   0.333252   0.332287   0.331326   0.330369   0.329417   0.328468   0.327523   0.326583 -0.010422 -0.010407 -0.010399 -0.010386 -0.010368 -0.010344 -0.010313 -0.010272 -0.010218 -0.010147 -0.010055 -0.009934 -0.009777 -0.009576 -0.009319 -0.008992 -0.008585 -0.008087 -0.007492 -0.006801 -0.006037 -0.004275 -0.002642 -0.002106
  -390.0         X  0.004162  0.004152  0.004142  0.004132  0.004122   0.343794   0.342793   0.341792   0.340795   0.339803   0.338815   0.337831   0.336852   0.335876   0.334905   0.333938   0.332975   0.332016   0.331061   0.330111 -0.010535 -0.010520 -0.010512 -0.010499 -0.010480 -0.010457 -0.010425 -0.010383 -0.010329 -0.010257 -0.010164 -0.010042 -0.009883 -0.009680 -0.009420 -0.009089 -0.008678 -0.008175 -0.007574 -0.006875 -0.006102 -0.004321 -0.002671 -0.002129
  -388.0         X  0.004207  0.004197  0.004187  0.004177  0.004167   0.347522   0.346510   0.345499   0.344491   0.343488   0.342489   0.341495   0.340504   0.339518   0.338537   0.337559   0.336586   0.335616   0.334651   0.333690 -0.010650 -0.010634 -0.010626 -0.010613 -0.010594 -0.010570 -0.010538 -0.010496 -0.010441 -0.010369 -0.010274 -0.010151 -0.009991 -0.009785 -0.009522 -0.009188 -0.008772 -0.008264 -0.007656 -0.006950 -0.006169 -0.004368 -0.002700 -0.002152
  -386.0         X  0.004253  0.004242  0.004232  0.004222  0.004212   0.351305   0.350282   0.349260   0.348241   0.347227   0.346217   0.345212   0.344211   0.343214   0.342222   0.341233   0.340249   0.339270   0.338294   0.337322 -0.010766 -0.010750 -0.010742 -0.010729 -0.010710 -0.010686 -0.010653 -0.010611 -0.010555 -0.010482 -0.010386 -0.010262 -0.010100 -0.009892 -0.009626 -0.009289 -0.008868 -0.008354 -0.007740 -0.007026 -0.006236 -0.004416 -0.002729 -0.002176
  -384.0         X  0.004299  0.004289  0.004279  0.004268  0.004258   0.355144   0.354110   0.353076   0.352046   0.351021   0.350000   0.348984   0.347972   0.346965   0.345961   0.344962   0.343967   0.342977   0.341990   0.341008 -0.010884 -0.010868 -0.010860 -0.010846 -0.010827 -0.010803 -0.010770 -0.010727 -0.010671 -0.010597 -0.010500 -0.010374 -0.010211 -0.010000 -0.009732 -0.009390 -0.008965 -0.008446 -0.007825 -0.007103 -0.006305 -0.004464 -0.002759 -0.002200
  -382.0         X  0.004346  0.004336  0.004325  0.004315  0.004305   0.359039   0.357995   0.356949   0.355908   0.354872   0.353840   0.352812   0.351789   0.350771   0.349756   0.348746   0.347740   0.346739   0.345742   0.344749 -0.011004 -0.010988 -0.010979 -0.010965 -0.010946 -0.010922 -0.010889 -0.010845 -0.010788 -0.010713 -0.010616 -0.010488 -0.010323 -0.010110 -0.009839 -0.009494 -0.009064 -0.008539 -0.007911 -0.007181 -0.006374 -0.004514 -0.002790 -0.002224
  -380.0         X  0.004394  0.004383  0.004373  0.004363  0.004352   0.362993   0.361937   0.360880   0.359828   0.358780   0.357736   0.356697   0.355663   0.354633   0.353608   0.352586   0.351570   0.350557   0.349549   0.348545 -0.011125 -0.011109 -0.011100 -0.011087 -0.011067 -0.011042 -0.011009 -0.010965 -0.010908 -0.010832 -0.010733 -0.010604 -0.010437 -0.010222 -0.009947 -0.009599 -0.009164 -0.008633 -0.007998 -0.007261 -0.006445 -0.004564 -0.002820 -0.002248
  -378.0         X  0.004442  0.004432  0.004421  0.004411  0.004400   0.367006   0.365938   0.364870   0.363805   0.362746   0.361691   0.360641   0.359595   0.358554   0.357517   0.356484   0.355456   0.354432   0.353413   0.352398 -0.011249 -0.011232 -0.011224 -0.011210 -0.011190 -0.011165 -0.011131 -0.011086 -0.011029 -0.010952 -0.010852 -0.010722 -0.010553 -0.010335 -0.010058 -0.009705 -0.009266 -0.008729 -0.008087 -0.007341 -0.006516 -0.004614 -0.002852 -0.002273
  -376.0         X  0.004492  0.004481  0.004470  0.004460  0.004449   0.371080   0.370000   0.368919   0.367843   0.366772   0.365705   0.364643   0.363586   0.362533   0.361484   0.360440   0.359401   0.358366   0.357335   0.356309 -0.011374 -0.011357 -0.011348 -0.011334 -0.011314 -0.011289 -0.011255 -0.011210 -0.011151 -0.011074 -0.010973 -0.010841 -0.010670 -0.010450 -0.010170 -0.009813 -0.009369 -0.008826 -0.008177 -0.007423 -0.006589 -0.004666 -0.002883 -0.002299
  -374.0         X  0.004542  0.004531  0.004520  0.004509  0.004499   0.375214   0.374122   0.373029   0.371942   0.370858   0.369780   0.368706   0.367637   0.366572   0.365512   0.364456   0.363405   0.362358   0.361316   0.360278 -0.011501 -0.011484 -0.011475 -0.011461 -0.011441 -0.011415 -0.011381 -0.011335 -0.011276 -0.011198 -0.011095 -0.010962 -0.010789 -0.010567 -0.010283 -0.009923 -0.009474 -0.008925 -0.008269 -0.007506 -0.006663 -0.004718 -0.002916 -0.002324
  -372.0         X  0.004593  0.004582  0.004571  0.004560  0.004549   0.379411   0.378307   0.377202   0.376102   0.375007   0.373916   0.372830   0.371749   0.370672   0.369600   0.368533   0.367470   0.366411   0.365357   0.364308 -0.011630 -0.011613 -0.011604 -0.011590 -0.011569 -0.011543 -0.011508 -0.011462 -0.011402 -0.011323 -0.011220 -0.011085 -0.010911 -0.010686 -0.010399 -0.010034 -0.009580 -0.009025 -0.008361 -0.007591 -0.006738 -0.004771 -0.002948 -0.002350
  -370.0         X  0.004644  0.004633  0.004622  0.004611  0.004600   0.383672   0.382555   0.381438   0.380326   0.379218   0.378115   0.377017   0.375923   0.374835   0.373751   0.372671   0.371596   0.370526   0.369460   0.368399 -0.011761 -0.011744 -0.011735 -0.011720 -0.011699 -0.011673 -0.011638 -0.011591 -0.011531 -0.011451 -0.011346 -0.011210 -0.011033 -0.010806 -0.010516 -0.010148 -0.009688 -0.009127 -0.008456 -0.007676 -0.006814 -0.004825 -0.002982 -0.002377
  -368.0         X  0.004696  0.004685  0.004674  0.004663  0.004652   0.387998   0.386869   0.385739   0.384614   0.383493   0.382378   0.381267   0.380162   0.379061   0.377964   0.376873   0.375786   0.374703   0.373625   0.372552 -0.011894 -0.011876 -0.011867 -0.011853 -0.011832 -0.011805 -0.011770 -0.011723 -0.011661 -0.011580 -0.011475 -0.011337 -0.011158 -0.010928 -0.010635 -0.010262 -0.009798 -0.009230 -0.008551 -0.007763 -0.006891 -0.004880 -0.003015 -0.002404
  -366.0         X  0.004750  0.004738  0.004727  0.004716  0.004704   0.392390   0.391248   0.390105   0.388967   0.387834   0.386706   0.385583   0.384465   0.383351   0.382243   0.381139   0.380039   0.378944   0.377854   0.376769 -0.012029 -0.012011 -0.012002 -0.011987 -0.011966 -0.011939 -0.011903 -0.011856 -0.011794 -0.011712 -0.011605 -0.011466 -0.011285 -0.011052 -0.010756 -0.010379 -0.009909 -0.009335 -0.008649 -0.007851 -0.006969 -0.004935 -0.003050 -0.002431
  -364.0         X  0.004804  0.004792  0.004781  0.004769  0.004758   0.396849   0.395694   0.394539   0.393388   0.392242   0.391101   0.389965   0.388834   0.387708   0.386587   0.385470   0.384358   0.383251   0.382148   0.381051 -0.012166 -0.012148 -0.012139 -0.012124 -0.012102 -0.012075 -0.012039 -0.011991 -0.011928 -0.011845 -0.011737 -0.011596 -0.011414 -0.011178 -0.010878 -0.010497 -0.010022 -0.009441 -0.008747 -0.007941 -0.007049 -0.004991 -0.003084 -0.002459
  -362.0         X  0.004858  0.004847  0.004835  0.004824  0.004812   0.401378   0.400209   0.399040   0.397876   0.396718   0.395564   0.394415   0.393271   0.392132   0.390997   0.389868   0.388744   0.387624   0.386509   0.385398 -0.012306 -0.012287 -0.012278 -0.012263 -0.012241 -0.012213 -0.012177 -0.012128 -0.012065 -0.011981 -0.011872 -0.011729 -0.011544 -0.011307 -0.011003 -0.010618 -0.010137 -0.009549 -0.008848 -0.008032 -0.007129 -0.005049 -0.003120 -0.002487
  -360.0         X  0.004914  0.004902  0.004891  0.004879  0.004867   0.405976   0.404794   0.403612   0.402435   0.401263   0.400095   0.398933   0.397776   0.396624   0.395477   0.394334   0.393197   0.392064   0.390936   0.389813 -0.012447 -0.012428 -0.012419 -0.012403 -0.012382 -0.012354 -0.012316 -0.012267 -0.012203 -0.012119 -0.012008 -0.011864 -0.011677 -0.011437 -0.011129 -0.010740 -0.010253 -0.009659 -0.008949 -0.008124 -0.007212 -0.005107 -0.003156 -0.002515
  -358.0         X  0.004970  0.004959  0.004947  0.004935  0.004923   0.410646   0.409451   0.408255   0.407064   0.405878   0.404698   0.403522   0.402352   0.401186   0.400026   0.398870   0.397720   0.396574   0.395433   0.394297 -0.012590 -0.012572 -0.012562 -0.012547 -0.012524 -0.012496 -0.012459 -0.012409 -0.012344 -0.012258 -0.012146 -0.012001 -0.011812 -0.011569 -0.011258 -0.010863 -0.010372 -0.009771 -0.009053 -0.008218 -0.007295 -0.005166 -0.003192 -0.002544
  -356.0         X  0.005028  0.005016  0.005004  0.004992  0.004980   0.415389   0.414180   0.412970   0.411765   0.410566   0.409372   0.408183   0.406999   0.405820   0.404646   0.403477   0.402313   0.401154   0.400000   0.398851 -0.012736 -0.012717 -0.012708 -0.012692 -0.012670 -0.012641 -0.012603 -0.012553 -0.012487 -0.012400 -0.012287 -0.012140 -0.011949 -0.011703 -0.011388 -0.010989 -0.010492 -0.009884 -0.009158 -0.008314 -0.007380 -0.005226 -0.003229 -0.002574
  -354.0         X  0.005086  0.005074  0.005062  0.005050  0.005038   0.420206   0.418983   0.417759   0.416541   0.415327   0.414119   0.412916   0.411718   0.410526   0.409338   0.408156   0.406978   0.405806   0.404638   0.403476 -0.012885 -0.012865 -0.012856 -0.012840 -0.012817 -0.012788 -0.012750 -0.012699 -0.012632 -0.012545 -0.012430 -0.012281 -0.012088 -0.011839 -0.011521 -0.011117 -0.010614 -0.009999 -0.009264 -0.008410 -0.007466 -0.005287 -0.003267 -0.002604
  -352.0         X  0.005145  0.005133  0.005121  0.005109  0.005096   0.425099   0.423862   0.422624   0.421391   0.420163   0.418941   0.417724   0.416512   0.415306   0.414104   0.412908   0.411717   0.410531   0.409350   0.408174 -0.013035 -0.013016 -0.013006 -0.012989 -0.012967 -0.012937 -0.012899 -0.012847 -0.012780 -0.012691 -0.012575 -0.012425 -0.012229 -0.011977 -0.011656 -0.011247 -0.010738 -0.010116 -0.009373 -0.008509 -0.007553 -0.005349 -0.003305 -0.002634
  -350.0         X  0.005205  0.005193  0.005181  0.005168  0.005156   0.430070   0.428818   0.427565   0.426318   0.425076   0.423839   0.422608   0.421382   0.420162   0.418946   0.417736   0.416531   0.415331   0.414136   0.412946 -0.013188 -0.013168 -0.013158 -0.013142 -0.013119 -0.013089 -0.013050 -0.012998 -0.012930 -0.012840 -0.012723 -0.012570 -0.012372 -0.012118 -0.011792 -0.011379 -0.010864 -0.010235 -0.009483 -0.008609 -0.007642 -0.005411 -0.003344 -0.002665
  -348.0         X  0.005266  0.005254  0.005241  0.005229  0.005216   0.435119   0.433853   0.432585   0.431323   0.430067   0.428816   0.427570   0.426329   0.425094   0.423865   0.422640   0.421421   0.420207   0.418998   0.417794 -0.013343 -0.013323 -0.013313 -0.013297 -0.013273 -0.013243 -0.013204 -0.013151 -0.013082 -0.012991 -0.012873 -0.012719 -0.012518 -0.012260 -0.011931 -0.011513 -0.010992 -0.010356 -0.009595 -0.008710 -0.007732 -0.005475 -0.003383 -0.002697
  -346.0         X  0.005329  0.005316  0.005303  0.005291  0.005278   0.440249   0.438968   0.437685   0.436408   0.435137   0.433871   0.432610   0.431355   0.430106   0.428862   0.427623   0.426389   0.425160   0.423937   0.422719 -0.013501 -0.013481 -0.013471 -0.013454 -0.013430 -0.013400 -0.013360 -0.013306 -0.013237 -0.013145 -0.013025 -0.012869 -0.012666 -0.012405 -0.012072 -0.011650 -0.011123 -0.010478 -0.009708 -0.008814 -0.007823 -0.005540 -0.003423 -0.002728
  -344.0         X  0.005392  0.005379  0.005366  0.005353  0.005340   0.445461   0.444164   0.442867   0.441575   0.440288   0.439007   0.437732   0.436462   0.435197   0.433938   0.432685   0.431436   0.430193   0.428956   0.427723 -0.013661 -0.013641 -0.013631 -0.013614 -0.013590 -0.013559 -0.013518 -0.013464 -0.013394 -0.013301 -0.013180 -0.013022 -0.012817 -0.012553 -0.012216 -0.011788 -0.011255 -0.010603 -0.009824 -0.008918 -0.007917 -0.005606 -0.003464 -0.002761
  -342.0         X  0.005456  0.005443  0.005430  0.005417  0.005404   0.450757   0.449445   0.448131   0.446824   0.445522   0.444226   0.442936   0.441650   0.440371   0.439097   0.437828   0.436565   0.435307   0.434055   0.432807 -0.013824 -0.013804 -0.013793 -0.013776 -0.013752 -0.013721 -0.013680 -0.013625 -0.013554 -0.013460 -0.013337 -0.013177 -0.012970 -0.012703 -0.012362 -0.011929 -0.011389 -0.010729 -0.009941 -0.009025 -0.008011 -0.005673 -0.003505 -0.002794
  -340.0         X  0.005521  0.005508  0.005494  0.005481  0.005468   0.456138   0.454810   0.453481   0.452158   0.450841   0.449529   0.448223   0.446923   0.445628   0.444339   0.443055   0.441776   0.440504   0.439236   0.437974 -0.013990 -0.013969 -0.013959 -0.013941 -0.013917 -0.013885 -0.013843 -0.013788 -0.013716 -0.013621 -0.013497 -0.013335 -0.013125 -0.012855 -0.012510 -0.012072 -0.011525 -0.010858 -0.010060 -0.009133 -0.008107 -0.005741 -0.003547 -0.002827
  -338.0         X  0.005587  0.005574  0.005560  0.005547  0.005534   0.461607   0.460263   0.458918   0.457579   0.456246   0.454918   0.453596   0.452280   0.450970   0.449665   0.448366   0.447072   0.445784   0.444501   0.443224 -0.014158 -0.014137 -0.014127 -0.014109 -0.014084 -0.014052 -0.014010 -0.013954 -0.013881 -0.013785 -0.013659 -0.013495 -0.013283 -0.013010 -0.012660 -0.012217 -0.011664 -0.010989 -0.010181 -0.009243 -0.008205 -0.005810 -0.003590 -0.002861
  -336.0         X  0.005654  0.005641  0.005627  0.005614  0.005600   0.467164   0.465804   0.464443   0.463088   0.461738   0.460395   0.459057   0.457725   0.456399   0.455079   0.453764   0.452454   0.451151   0.449852   0.448560 -0.014329 -0.014308 -0.014297 -0.014279 -0.014254 -0.014222 -0.014179 -0.014123 -0.014049 -0.013951 -0.013824 -0.013659 -0.013443 -0.013167 -0.012813 -0.012365 -0.011805 -0.011122 -0.010305 -0.009355 -0.008304 -0.005881 -0.003633 -0.002896
  -334.0         X  0.005722  0.005709  0.005695  0.005682  0.005668   0.472812   0.471436   0.470058   0.468687   0.467321   0.465961   0.464607   0.463259   0.461917   0.460580   0.459250   0.457924   0.456605   0.455291   0.453982 -0.014503 -0.014481 -0.014471 -0.014452 -0.014427 -0.014394 -0.014351 -0.014294 -0.014219 -0.014121 -0.013992 -0.013824 -0.013607 -0.013326 -0.012969 -0.012515 -0.011949 -0.011257 -0.010430 -0.009469 -0.008405 -0.005952 -0.003678 -0.002931
  -332.0         X  0.005792  0.005778  0.005764  0.005750  0.005737   0.478553   0.477160   0.475766   0.474377   0.472995   0.471619   0.470248   0.468884   0.467525   0.466173   0.464826   0.463484   0.462149   0.460819   0.459494 -0.014680 -0.014658 -0.014647 -0.014628 -0.014603 -0.014570 -0.014526 -0.014468 -0.014393 -0.014293 -0.014162 -0.013993 -0.013772 -0.013489 -0.013127 -0.012667 -0.012094 -0.011394 -0.010557 -0.009584 -0.008508 -0.006025 -0.003722 -0.002967
  -330.0         X  0.005862  0.005848  0.005834  0.005821  0.005807   0.484389   0.482978   0.481567   0.480162   0.478763   0.477370   0.475983   0.474601   0.473226   0.471857   0.470493   0.469136   0.467784   0.466437   0.465097 -0.014859 -0.014837 -0.014826 -0.014807 -0.014781 -0.014748 -0.014704 -0.014645 -0.014569 -0.014468 -0.014336 -0.014164 -0.013941 -0.013654 -0.013288 -0.012823 -0.012242 -0.011534 -0.010686 -0.009702 -0.008612 -0.006099 -0.003768 -0.003003
  -328.0         X  0.005934  0.005920  0.005906  0.005892  0.005878   0.490321   0.488893   0.487465   0.486042   0.484626   0.483216   0.481812   0.480414   0.479021   0.477635   0.476255   0.474881   0.473512   0.472149   0.470792 -0.015042 -0.015020 -0.015008 -0.014989 -0.014963 -0.014929 -0.014885 -0.014825 -0.014748 -0.014646 -0.014512 -0.014338 -0.014112 -0.013822 -0.013451 -0.012980 -0.012393 -0.011676 -0.010818 -0.009821 -0.008718 -0.006174 -0.003814 -0.003040
  -326.0         X  0.006007  0.005993  0.005978  0.005964  0.005950   0.496352   0.494907   0.493460   0.492020   0.490587   0.489159   0.487738   0.486322   0.484913   0.483510   0.482112   0.480721   0.479336   0.477956   0.476582 -0.015228 -0.015205 -0.015194 -0.015175 -0.015148 -0.015114 -0.015068 -0.015008 -0.014930 -0.014826 -0.014691 -0.014515 -0.014287 -0.013993 -0.013617 -0.013141 -0.012546 -0.011820 -0.010952 -0.009943 -0.008826 -0.006250 -0.003861 -0.003077
  -324.0         X  0.006081  0.006067  0.006052  0.006038  0.006023   0.502483   0.501020   0.499556   0.498098   0.496647   0.495201   0.493762   0.492330   0.490903   0.489482   0.488068   0.486659   0.485257   0.483860   0.482469 -0.015416 -0.015394 -0.015382 -0.015363 -0.015336 -0.015301 -0.015255 -0.015194 -0.015115 -0.015010 -0.014873 -0.014695 -0.014464 -0.014166 -0.013786 -0.013304 -0.012702 -0.011966 -0.011088 -0.010066 -0.008935 -0.006328 -0.003909 -0.003116
