Name:B X_Dim:30 Y_Dim:600 Conductance:1000.0

### Channel Times ###
      Start      End
0   -1.9505  -1.9495
1   -1.8505  -1.8495
2   -1.7505  -1.7495
3   -1.6505  -1.6495
4   -1.5505  -1.5495
5   -1.4500  -1.4490
6   -1.3505  -1.3495
7   -1.2505  -1.2495
8   -1.1505  -1.1495
9   -1.0505  -1.0495
10  -0.9505  -0.9495
11  -0.8505  -0.8495
12  -0.7505  -0.7495
13  -0.6505  -0.6495
14  -0.5505  -0.5495
15  -0.4505  -0.4495
16  -0.3505  -0.3495
17  -0.2505  -0.2495
18  -0.1505  -0.1495
19  -0.0505  -0.0495
20   0.0250   0.0260
21   0.0545   0.0555
22   0.0695   0.0705
23   0.0945   0.0955
24   0.1295   0.1305
25   0.1745   0.1755
26   0.2345   0.2355
27   0.3145   0.3155
28   0.4195   0.4205
29   0.5595   0.5605
30   0.7445   0.7455
31   0.9895   0.9905
32   1.3145   1.3155
33   1.7445   1.7455
34   2.3145   2.3155
35   3.0745   3.0755
36   4.0845   4.0855
37   5.4245   5.4255
38   7.2045   7.2055
39   9.5695   9.5705
40  12.6595  12.6605
41  22.7295  22.7305
42  39.3945  39.3955
43  48.1145  48.1155

### Data ###
 Station Component             0             1             2             3             4          5          6          7          8          9         10         11         12         13         14         15         16         17         18         19        20        21        22        23        24        25        26        27        28        29        30        31        32        33        34        35        36            37        38        39        40            41            42            43
  -400.0         X  2.543720e-06  2.489470e-06  2.436390e-06  2.384430e-06  2.333580e-06   0.317789   0.308757   0.300054   0.291703   0.283681   0.275967   0.268543   0.261391   0.254497   0.247845   0.241423   0.235218   0.229220   0.223417   0.217801 -0.106438 -0.105275 -0.104691 -0.103729 -0.102406 -0.100744 -0.098594 -0.095838 -0.092401 -0.088109 -0.082892 -0.076675 -0.069439 -0.061286 -0.052379 -0.042956 -0.033445 -2.434940e-02 -0.016209 -0.009565 -0.004851 -5.431240e-04 -1.479780e-05 -2.256550e-06
  -398.0         X  2.570270e-06  2.515450e-06  2.461810e-06  2.409310e-06  2.357930e-06   0.321170   0.312042   0.303247   0.294807   0.286699   0.278902   0.271399   0.264171   0.257203   0.250481   0.243990   0.237719   0.231657   0.225792   0.220116 -0.107573 -0.106397 -0.105807 -0.104835 -0.103498 -0.101818 -0.099645 -0.096860 -0.093386 -0.089049 -0.083777 -0.077492 -0.070180 -0.061939 -0.052937 -0.043414 -0.033801 -2.460810e-02 -0.016381 -0.009666 -0.004902 -5.488300e-04 -1.495250e-05 -2.280090e-06
  -396.0         X  2.597190e-06  2.541800e-06  2.487600e-06  2.434550e-06  2.382630e-06   0.324600   0.315375   0.306485   0.297955   0.289760   0.281881   0.274297   0.266992   0.259949   0.253155   0.246594   0.240256   0.234129   0.228202   0.222465 -0.108725 -0.107536 -0.106939 -0.105957 -0.104606 -0.102908 -0.100712 -0.097897 -0.094386 -0.090002 -0.084673 -0.078322 -0.070931 -0.062602 -0.053503 -0.043878 -0.034162 -2.487060e-02 -0.016556 -0.009769 -0.004954 -5.546170e-04 -1.510930e-05 -2.303970e-06
  -394.0         X  2.624490e-06  2.568520e-06  2.513740e-06  2.460140e-06  2.407670e-06   0.328081   0.318756   0.309771   0.301149   0.292866   0.284902   0.277237   0.269853   0.262735   0.255867   0.249236   0.242830   0.236637   0.230646   0.224848 -0.109893 -0.108691 -0.108088 -0.107095 -0.105729 -0.104014 -0.101794 -0.098949 -0.095400 -0.090969 -0.085583 -0.079163 -0.071693 -0.063274 -0.054078 -0.044348 -0.034528 -2.513690e-02 -0.016733 -0.009873 -0.005007 -5.604870e-04 -1.526840e-05 -2.328190e-06
  -392.0         X  2.652180e-06  2.595620e-06  2.540260e-06  2.486090e-06  2.433070e-06   0.331611   0.322186   0.313104   0.304389   0.296017   0.287967   0.280219   0.272756   0.265561   0.258619   0.251917   0.245442   0.239182   0.233126   0.227265 -0.111078 -0.109863 -0.109254 -0.108250 -0.106870 -0.105135 -0.102892 -0.100016 -0.096429 -0.091950 -0.086506 -0.080017 -0.072466 -0.063956 -0.054661 -0.044826 -0.034900 -2.540700e-02 -0.016912 -0.009979 -0.005060 -5.664410e-04 -1.542970e-05 -2.352750e-06
  -390.0         X  2.680260e-06  2.623100e-06  2.567160e-06  2.512420e-06  2.458840e-06   0.335194   0.325666   0.316486   0.307677   0.299214   0.291077   0.283245   0.275701   0.268428   0.261411   0.254637   0.248091   0.241764   0.235642   0.229718 -0.112280 -0.111053 -0.110437 -0.109422 -0.108027 -0.106274 -0.104006 -0.101099 -0.097473 -0.092946 -0.087443 -0.080883 -0.073250 -0.064648 -0.055252 -0.045311 -0.035277 -2.568110e-02 -0.017094 -0.010086 -0.005114 -5.724800e-04 -1.559340e-05 -2.377660e-06
  -388.0         X  2.708750e-06  2.650980e-06  2.594450e-06  2.539120e-06  2.484970e-06   0.338828   0.329197   0.319918   0.311013   0.302458   0.294232   0.286315   0.278689   0.271337   0.264244   0.257396   0.250780   0.244383   0.238195   0.232207 -0.113501 -0.112260 -0.111637 -0.110612 -0.109201 -0.107429 -0.105136 -0.102198 -0.098532 -0.093956 -0.088393 -0.081763 -0.074047 -0.065351 -0.055852 -0.045803 -0.035659 -2.595920e-02 -0.017279 -0.010195 -0.005169 -5.786060e-04 -1.575940e-05 -2.402930e-06
  -386.0         X  2.737650e-06  2.679260e-06  2.622120e-06  2.566200e-06  2.511470e-06   0.342517   0.332781   0.323400   0.314398   0.305750   0.297434   0.289431   0.281722   0.274289   0.267119   0.260196   0.253507   0.247041   0.240786   0.234732 -0.114739 -0.113484 -0.112855 -0.111818 -0.110392 -0.108601 -0.106283 -0.103313 -0.099608 -0.094981 -0.089358 -0.082655 -0.074854 -0.066063 -0.056461 -0.046302 -0.036048 -2.624140e-02 -0.017466 -0.010305 -0.005225 -5.848220e-04 -1.592780e-05 -2.428560e-06
  -384.0         X  2.766960e-06  2.707950e-06  2.650200e-06  2.593680e-06  2.538360e-06   0.346260   0.336417   0.326933   0.317833   0.309090   0.300683   0.292592   0.284799   0.277285   0.270036   0.263037   0.256275   0.249738   0.243415   0.237294 -0.115995 -0.114727 -0.114091 -0.113043 -0.111601 -0.109790 -0.107447 -0.104444 -0.100698 -0.096021 -0.090336 -0.083560 -0.075674 -0.066787 -0.057079 -0.046808 -0.036441 -2.652770e-02 -0.017657 -0.010417 -0.005282 -5.911270e-04 -1.609860e-05 -2.454560e-06
  -382.0         X  2.796700e-06  2.737050e-06  2.678680e-06  2.621550e-06  2.565640e-06   0.350058   0.340107   0.330519   0.321318   0.312480   0.303981   0.295801   0.287921   0.280325   0.272997   0.265921   0.259085   0.252476   0.246082   0.239895 -0.117271 -0.115989 -0.115345 -0.114286 -0.112828 -0.110997 -0.108628 -0.105592 -0.101806 -0.097077 -0.091329 -0.084478 -0.076506 -0.067521 -0.057706 -0.047322 -0.036841 -2.681830e-02 -0.017850 -0.010531 -0.005339 -5.975250e-04 -1.627190e-05 -2.480930e-06
  -380.0         X  2.826860e-06  2.766570e-06  2.707570e-06  2.649830e-06  2.593310e-06   0.353913   0.343852   0.334159   0.324856   0.315920   0.307327   0.299057   0.291091   0.283411   0.276001   0.268847   0.261935   0.255253   0.248790   0.242534 -0.118565 -0.117269 -0.116618 -0.115547 -0.114073 -0.112222 -0.109827 -0.106758 -0.102929 -0.098148 -0.092338 -0.085411 -0.077350 -0.068266 -0.058342 -0.047843 -0.037247 -2.711320e-02 -0.018046 -0.010646 -0.005398 -6.040170e-04 -1.644770e-05 -2.507690e-06
  -378.0         X  2.857470e-06  2.796530e-06  2.736880e-06  2.678520e-06  2.621390e-06   0.357825   0.347653   0.337852   0.328447   0.319412   0.310724   0.302362   0.294307   0.286542   0.279050   0.271817   0.264829   0.258073   0.251538   0.245212 -0.119879 -0.118568 -0.117910 -0.116827 -0.115337 -0.113466 -0.111044 -0.107941 -0.104070 -0.099236 -0.093361 -0.086357 -0.078207 -0.069022 -0.058988 -0.048373 -0.037658 -2.741250e-02 -0.018245 -0.010764 -0.005457 -6.106040e-04 -1.662610e-05 -2.534840e-06
  -376.0         X  2.888530e-06  2.826920e-06  2.766630e-06  2.707620e-06  2.649880e-06   0.361797   0.351511   0.341602   0.332091   0.322956   0.314171   0.305716   0.297572   0.289721   0.282145   0.274832   0.267766   0.260935   0.254327   0.247931 -0.121212 -0.119887 -0.119222 -0.118127 -0.116620 -0.114728 -0.112280 -0.109142 -0.105228 -0.100340 -0.094399 -0.087318 -0.079077 -0.069789 -0.059644 -0.048910 -0.038076 -2.771630e-02 -0.018446 -0.010882 -0.005517 -6.172880e-04 -1.680710e-05 -2.562390e-06
  -374.0         X  2.920040e-06  2.857760e-06  2.796810e-06  2.737160e-06  2.678780e-06   0.365828   0.355428   0.345407   0.335791   0.326553   0.317670   0.309121   0.300886   0.292947   0.285287   0.277892   0.270747   0.263839   0.257157   0.250690 -0.122566 -0.121226 -0.120553 -0.119446 -0.117923 -0.116009 -0.113534 -0.110360 -0.106403 -0.101460 -0.095453 -0.088293 -0.079960 -0.070569 -0.060309 -0.049456 -0.038501 -2.802460e-02 -0.018651 -0.011003 -0.005578 -6.240720e-04 -1.699070e-05 -2.590340e-06
  -372.0         X  2.952010e-06  2.889050e-06  2.827430e-06  2.767130e-06  2.708120e-06   0.369920   0.359403   0.349270   0.339546   0.330205   0.321223   0.312578   0.304250   0.296222   0.288476   0.280998   0.273773   0.266788   0.260031   0.253491 -0.123940 -0.122585 -0.121905 -0.120785 -0.119245 -0.117310 -0.114807 -0.111598 -0.107596 -0.102598 -0.096524 -0.089283 -0.080856 -0.071359 -0.060985 -0.050009 -0.038931 -2.833770e-02 -0.018859 -0.011125 -0.005640 -6.309560e-04 -1.717710e-05 -2.618700e-06
  -370.0         X  2.984460e-06  2.920810e-06  2.858510e-06  2.797550e-06  2.737880e-06   0.374074   0.363439   0.353192   0.343359   0.333912   0.324829   0.316086   0.307665   0.299547   0.291714   0.284151   0.276845   0.269781   0.262949   0.256335 -0.125335 -0.123965 -0.123277 -0.122145 -0.120587 -0.118630 -0.116099 -0.112854 -0.108807 -0.103753 -0.097610 -0.090288 -0.081766 -0.072162 -0.061671 -0.050571 -0.039368 -2.865540e-02 -0.019070 -0.011250 -0.005703 -6.379430e-04 -1.736620e-05 -2.647480e-06
  -368.0         X  3.017390e-06  2.953040e-06  2.890050e-06  2.828410e-06  2.768090e-06   0.378291   0.367536   0.357174   0.347229   0.337676   0.328490   0.319649   0.311132   0.302922   0.295001   0.287353   0.279964   0.272820   0.265910   0.259222 -0.126751 -0.125366 -0.124670 -0.123525 -0.121950 -0.119971 -0.117411 -0.114130 -0.110037 -0.104926 -0.098713 -0.091308 -0.082690 -0.072978 -0.062367 -0.051142 -0.039812 -2.897800e-02 -0.019284 -0.011376 -0.005767 -6.450350e-04 -1.755820e-05 -2.676690e-06
  -366.0         X  3.050820e-06  2.985750e-06  2.922060e-06  2.859740e-06  2.798750e-06   0.382573   0.371696   0.361216   0.351159   0.341497   0.332207   0.323266   0.314652   0.306349   0.298338   0.290603   0.283130   0.275906   0.268917   0.262153 -0.128189 -0.126788 -0.126085 -0.124927 -0.123333 -0.121332 -0.118743 -0.115425 -0.111285 -0.106116 -0.099834 -0.092344 -0.083628 -0.073805 -0.063074 -0.051721 -0.040263 -2.930550e-02 -0.019502 -0.011504 -0.005831 -6.522340e-04 -1.775300e-05 -2.706330e-06
  -364.0         X  3.084740e-06  3.018940e-06  2.954550e-06  2.891540e-06  2.829860e-06   0.386921   0.375920   0.365321   0.355149   0.345377   0.335981   0.326938   0.318227   0.309829   0.301726   0.293903   0.286345   0.279039   0.271970   0.265129 -0.129649 -0.128232 -0.127521 -0.126350 -0.124738 -0.122715 -0.120096 -0.116739 -0.112553 -0.107325 -0.100971 -0.093396 -0.084581 -0.074646 -0.063792 -0.052310 -0.040720 -2.963810e-02 -0.019723 -0.011634 -0.005897 -6.595410e-04 -1.795080e-05 -2.736420e-06
  -362.0         X  3.119170e-06  3.052640e-06  2.987530e-06  2.923810e-06  2.861450e-06   0.391336   0.380210   0.369489   0.359201   0.349317   0.339814   0.330667   0.321856   0.313362   0.305167   0.297254   0.289610   0.282220   0.275071   0.268151 -0.131132 -0.129699 -0.128980 -0.127795 -0.126165 -0.124118 -0.121470 -0.118075 -0.113841 -0.108553 -0.102126 -0.094464 -0.085548 -0.075499 -0.064521 -0.052907 -0.041185 -2.997570e-02 -0.019947 -0.011766 -0.005964 -6.669590e-04 -1.815150e-05 -2.766960e-06
  -360.0         X  3.154120e-06  3.086840e-06  3.021000e-06  2.956570e-06  2.893510e-06   0.395820   0.384565   0.373721   0.363315   0.353318   0.343705   0.334454   0.325542   0.316950   0.308661   0.300657   0.292925   0.285450   0.278219   0.271220 -0.132638 -0.131188 -0.130461 -0.129263 -0.127614 -0.125544 -0.122865 -0.119431 -0.115148 -0.109800 -0.103299 -0.095549 -0.086530 -0.076366 -0.065262 -0.053514 -0.041657 -3.031860e-02 -0.020175 -0.011900 -0.006032 -6.744910e-04 -1.835520e-05 -2.797960e-06
  -358.0         X  3.189600e-06  3.121570e-06  3.054980e-06  2.989820e-06  2.926050e-06   0.400373   0.388989   0.378020   0.367493   0.357381   0.347658   0.338299   0.329284   0.320594   0.312209   0.304113   0.296292   0.288730   0.281416   0.274336 -0.134168 -0.132701 -0.131965 -0.130753 -0.129086 -0.126991 -0.124281 -0.120808 -0.116476 -0.111066 -0.104490 -0.096651 -0.087528 -0.077246 -0.066014 -0.054130 -0.042136 -3.066680e-02 -0.020406 -0.012036 -0.006100 -6.821370e-04 -1.856210e-05 -2.829430e-06
  -356.0         X  3.225620e-06  3.156820e-06  3.089480e-06  3.023590e-06  2.959100e-06   0.404997   0.393481   0.382385   0.371737   0.361508   0.351672   0.342205   0.333086   0.324294   0.315812   0.307623   0.299711   0.292062   0.284663   0.277501 -0.135721 -0.134237 -0.133493 -0.132267 -0.130580 -0.128462 -0.125720 -0.122207 -0.117825 -0.112352 -0.105700 -0.097770 -0.088541 -0.078140 -0.066777 -0.054756 -0.042622 -3.102040e-02 -0.020641 -0.012174 -0.006170 -6.899010e-04 -1.877210e-05 -2.861380e-06
  -354.0         X  3.262190e-06  3.192600e-06  3.124510e-06  3.057860e-06  2.992640e-06   0.409693   0.398044   0.386819   0.376047   0.365699   0.355748   0.346172   0.336946   0.328053   0.319472   0.311188   0.303184   0.295446   0.287961   0.280716 -0.137299 -0.135798 -0.135045 -0.133805 -0.132098 -0.129955 -0.127182 -0.123628 -0.119194 -0.113658 -0.106929 -0.098906 -0.089570 -0.079048 -0.067553 -0.055391 -0.043117 -3.137960e-02 -0.020880 -0.012314 -0.006241 -6.977840e-04 -1.898530e-05 -2.893810e-06
  -352.0         X  3.299310e-06  3.228940e-06  3.160070e-06  3.092660e-06  3.026700e-06   0.414464   0.402679   0.391323   0.380425   0.369956   0.359889   0.350201   0.340868   0.331870   0.323190   0.314808   0.306711   0.298883   0.291310   0.283981 -0.138901 -0.137383 -0.136621 -0.135366 -0.133640 -0.131472 -0.128667 -0.125071 -0.120586 -0.114985 -0.108177 -0.100061 -0.090616 -0.079970 -0.068341 -0.056037 -0.043619 -3.174440e-02 -0.021122 -0.012457 -0.006313 -7.057890e-04 -1.920180e-05 -2.926740e-06
  -350.0         X  3.337010e-06  3.265830e-06  3.196170e-06  3.128000e-06  3.061280e-06   0.419310   0.407386   0.395898   0.384872   0.374281   0.364096   0.354294   0.344851   0.335748   0.326966   0.318486   0.310294   0.302374   0.294713   0.287297 -0.140529 -0.138993 -0.138223 -0.136953 -0.135207 -0.133013 -0.130175 -0.126537 -0.121999 -0.116333 -0.109445 -0.101234 -0.091678 -0.080907 -0.069141 -0.056693 -0.044129 -3.211500e-02 -0.021368 -0.012602 -0.006386 -7.139190e-04 -1.942160e-05 -2.960180e-06
  -348.0         X  3.375290e-06  3.303300e-06  3.232830e-06  3.163880e-06  3.096390e-06   0.424233   0.412169   0.400545   0.389390   0.378674   0.368369   0.358452   0.348898   0.339688   0.330802   0.322223   0.313934   0.305921   0.298169   0.290667 -0.142184 -0.140629 -0.139850 -0.138565 -0.136798 -0.134579 -0.131707 -0.128026 -0.123435 -0.117702 -0.110733 -0.102425 -0.092757 -0.081859 -0.069954 -0.057359 -0.044646 -3.249140e-02 -0.021618 -0.012749 -0.006461 -7.221760e-04 -1.964480e-05 -2.994130e-06
  -346.0         X  3.414170e-06  3.341340e-06  3.270070e-06  3.200310e-06  3.132050e-06   0.429234   0.417028   0.405267   0.393980   0.383137   0.372710   0.362676   0.353009   0.343690   0.334699   0.326019   0.317632   0.309524   0.301681   0.294089 -0.143864 -0.142291 -0.141502 -0.140203 -0.138415 -0.136169 -0.133264 -0.129540 -0.124894 -0.119093 -0.112042 -0.103636 -0.093853 -0.082826 -0.070780 -0.058036 -0.045173 -3.287390e-02 -0.021872 -0.012898 -0.006536 -7.305610e-04 -1.987150e-05 -3.028610e-06
  -344.0         X  3.453650e-06  3.379970e-06  3.307880e-06  3.237320e-06  3.168260e-06   0.434316   0.421965   0.410064   0.398643   0.387671   0.377121   0.366967   0.357186   0.347757   0.338659   0.329875   0.321389   0.313185   0.305248   0.297567 -0.145571 -0.143980 -0.143182 -0.141867 -0.140058 -0.137786 -0.134846 -0.131077 -0.126377 -0.120507 -0.113372 -0.104866 -0.094967 -0.083809 -0.071620 -0.058723 -0.045707 -3.326240e-02 -0.022130 -0.013050 -0.006613 -7.390790e-04 -2.010170e-05 -3.063620e-06
  -342.0         X  3.493740e-06  3.419210e-06  3.346280e-06  3.274900e-06  3.205040e-06   0.439479   0.426981   0.414938   0.403381   0.392279   0.381603   0.371328   0.361430   0.351888   0.342682   0.333794   0.325206   0.316904   0.308873   0.301100 -0.147306 -0.145696 -0.144888 -0.143558 -0.141727 -0.139428 -0.136453 -0.132640 -0.127883 -0.121943 -0.114723 -0.106116 -0.096098 -0.084808 -0.072472 -0.059422 -0.046251 -3.365720e-02 -0.022392 -0.013204 -0.006691 -7.477310e-04 -2.033560e-05 -3.099180e-06
  -340.0         X  3.534460e-06  3.459070e-06  3.385280e-06  3.313070e-06  3.242400e-06   0.444726   0.432078   0.419891   0.408195   0.396960   0.386157   0.375759   0.365743   0.356086   0.346770   0.337775   0.329085   0.320684   0.312557   0.304691 -0.149069 -0.147440 -0.146623 -0.145276 -0.143424 -0.141097 -0.138086 -0.134227 -0.129414 -0.123403 -0.116096 -0.107386 -0.097248 -0.085822 -0.073339 -0.060132 -0.046803 -3.405830e-02 -0.022659 -0.013361 -0.006770 -7.565200e-04 -2.057310e-05 -3.135300e-06
  -338.0         X  3.575830e-06  3.499550e-06  3.424900e-06  3.351840e-06  3.280340e-06   0.450057   0.437257   0.424924   0.413088   0.401718   0.390784   0.380261   0.370125   0.360353   0.350924   0.341821   0.333027   0.324524   0.316299   0.308339 -0.150861 -0.149212 -0.148385 -0.147022 -0.145148 -0.142793 -0.139746 -0.135841 -0.130970 -0.124886 -0.117492 -0.108677 -0.098417 -0.086853 -0.074220 -0.060854 -0.047364 -3.446590e-02 -0.022929 -0.013520 -0.006851 -7.654490e-04 -2.081430e-05 -3.171990e-06
  -336.0         X  3.617840e-06  3.540670e-06  3.465140e-06  3.391220e-06  3.318880e-06   0.455475   0.442521   0.430039   0.418060   0.406553   0.395487   0.384837   0.374578   0.364688   0.355146   0.345933   0.337032   0.328427   0.320103   0.312047 -0.152682 -0.151013 -0.150176 -0.148797 -0.146900 -0.144516 -0.141433 -0.137481 -0.132551 -0.126394 -0.118910 -0.109988 -0.099605 -0.087901 -0.075115 -0.061587 -0.047934 -3.488010e-02 -0.023204 -0.013682 -0.006932 -7.745200e-04 -2.105940e-05 -3.209260e-06
  -334.0         X  3.660530e-06  3.582440e-06  3.506020e-06  3.431230e-06  3.358040e-06   0.460982   0.447871   0.435237   0.423113   0.411467   0.400267   0.389488   0.379105   0.369095   0.359437   0.350112   0.341103   0.332394   0.323969   0.315815 -0.154533 -0.152844 -0.151996 -0.150601 -0.148680 -0.146268 -0.143147 -0.139147 -0.134158 -0.127926 -0.120352 -0.111322 -0.100812 -0.088966 -0.076025 -0.062333 -0.048513 -3.530110e-02 -0.023484 -0.013846 -0.007015 -7.837370e-04 -2.130840e-05 -3.247110e-06
  -332.0         X  3.703890e-06  3.624880e-06  3.547550e-06  3.471870e-06  3.397810e-06   0.466579   0.453308   0.440521   0.428250   0.416461   0.405125   0.394215   0.383705   0.373573   0.363798   0.354360   0.345241   0.336426   0.327898   0.319645 -0.156414 -0.154705 -0.153847 -0.152434 -0.150491 -0.148049 -0.144890 -0.140841 -0.135791 -0.129484 -0.121817 -0.112677 -0.102039 -0.090049 -0.076949 -0.063090 -0.049102 -3.572900e-02 -0.023768 -0.014013 -0.007100 -7.931030e-04 -2.156130e-05 -3.285580e-06
  -330.0         X  3.747950e-06  3.668000e-06  3.589750e-06  3.513170e-06  3.438230e-06   0.472269   0.458836   0.445892   0.433471   0.421538   0.410064   0.399020   0.388382   0.378126   0.368231   0.358677   0.349447   0.340524   0.331892   0.323538 -0.158327 -0.156596 -0.155728 -0.154298 -0.152331 -0.149859 -0.146662 -0.142564 -0.137451 -0.131067 -0.123307 -0.114055 -0.103287 -0.091149 -0.077889 -0.063860 -0.049701 -3.616390e-02 -0.024057 -0.014183 -0.007186 -8.026200e-04 -2.181830e-05 -3.324650e-06
