Name:B X_Dim:600 Y_Dim:60 Conductance:1000.0

### Channel Times ###
      Start      End
0   -1.9505  -1.9495
1   -1.8505  -1.8495
2   -1.7505  -1.7495
3   -1.6505  -1.6495
4   -1.5505  -1.5495
5   -1.4500  -1.4490
6   -1.3505  -1.3495
7   -1.2505  -1.2495
8   -1.1505  -1.1495
9   -1.0505  -1.0495
10  -0.9505  -0.9495
11  -0.8505  -0.8495
12  -0.7505  -0.7495
13  -0.6505  -0.6495
14  -0.5505  -0.5495
15  -0.4505  -0.4495
16  -0.3505  -0.3495
17  -0.2505  -0.2495
18  -0.1505  -0.1495
19  -0.0505  -0.0495
20   0.0250   0.0260
21   0.0545   0.0555
22   0.0695   0.0705
23   0.0945   0.0955
24   0.1295   0.1305
25   0.1745   0.1755
26   0.2345   0.2355
27   0.3145   0.3155
28   0.4195   0.4205
29   0.5595   0.5605
30   0.7445   0.7455
31   0.9895   0.9905
32   1.3145   1.3155
33   1.7445   1.7455
34   2.3145   2.3155
35   3.0745   3.0755
36   4.0845   4.0855
37   5.4245   5.4255
38   7.2045   7.2055
39   9.5695   9.5705
40  12.6595  12.6605
41  22.7295  22.7305
42  39.3945  39.3955
43  48.1145  48.1155

### Data ###
 Station Component             0             1             2             3             4            5            6            7            8            9           10           11           12           13           14           15           16           17           18           19           20           21           22           23           24           25           26           27           28           29           30           31           32           33          34          35          36          37          38          39          40         41         42            43
  -400.0         X  3.740300e-03  3.700330e-03  3.660780e-03  3.621650e-03  3.582950e-03     4.916600     4.845450     4.775500     4.707070     4.640090     4.574520     4.510300     4.447400     4.385770     4.325370     4.266160     4.208110     4.151160     4.095300     4.040490    -0.931391    -0.925774    -0.922939    -0.918246    -0.911740    -0.903485    -0.892667    -0.878568    -0.860606    -0.837569    -0.808625    -0.772705    -0.728860    -0.676640   -0.615928   -0.547058   -0.471785   -0.392568   -0.312292   -0.234472   -0.164068  -0.054075  -0.008968 -3.512970e-03
  -398.0         X  3.780630e-03  3.740230e-03  3.700250e-03  3.660710e-03  3.621580e-03     4.969360     4.897440     4.826740     4.757570     4.689870     4.623600     4.558690     4.495120     4.432830     4.371780     4.311930     4.253250     4.195700     4.139240     4.083840    -0.941391    -0.935713    -0.932848    -0.928104    -0.921528    -0.913184    -0.902250    -0.887999    -0.869843    -0.846558    -0.817302    -0.780997    -0.736679    -0.683898   -0.622534   -0.552924   -0.476843   -0.396776   -0.315640   -0.236986   -0.165828  -0.054656  -0.009065 -3.550850e-03
  -396.0         X  3.821520e-03  3.780680e-03  3.740270e-03  3.700300e-03  3.660750e-03     5.022830     4.950140     4.878680     4.808760     4.740340     4.673350     4.607740     4.543490     4.480520     4.418820     4.358330     4.299010     4.240840     4.183770     4.127780    -0.951527    -0.945788    -0.942891    -0.938096    -0.931449    -0.923015    -0.911963    -0.897558    -0.879207    -0.855670    -0.826098    -0.789401    -0.744605    -0.691255   -0.629229   -0.558870   -0.481970   -0.401042   -0.319033   -0.239534   -0.167612  -0.055245  -0.009163 -3.589250e-03
  -394.0         X  3.862960e-03  3.821680e-03  3.780840e-03  3.740430e-03  3.700450e-03     5.077030     5.003560     4.931330     4.860650     4.791490     4.723770     4.657460     4.592510     4.528870     4.466500     4.405350     4.345400     4.286600     4.228920     4.172320    -0.961801    -0.956000    -0.953072    -0.948225    -0.941506    -0.932981    -0.921808    -0.907248    -0.888698    -0.864906    -0.835014    -0.797920    -0.752640    -0.698712   -0.636016   -0.564896   -0.487167   -0.405366   -0.322473   -0.242118   -0.169420  -0.055842  -0.009262 -3.628180e-03
  -392.0         X  3.904980e-03  3.863250e-03  3.821960e-03  3.781110e-03  3.740710e-03     5.131980     5.057710     4.984690     4.913250     4.843340     4.774890     4.707860     4.642210     4.577880     4.514830     4.453020     4.392420     4.332980     4.274680     4.217460    -0.972216    -0.966352    -0.963392    -0.958492    -0.951700    -0.943083    -0.931789    -0.917070    -0.898318    -0.874268    -0.844052    -0.806555    -0.760784    -0.706271   -0.642895   -0.571006   -0.492435   -0.409749   -0.325960   -0.244736   -0.171253  -0.056447  -0.009363 -3.667640e-03
  -390.0         X  3.947570e-03  3.905390e-03  3.863650e-03  3.822360e-03  3.781510e-03     5.187670     5.112600     5.038790     4.966580     4.895900     4.826710     4.758950     4.692580     4.627550     4.563820     4.501350     4.440090     4.380000     4.321060     4.263230    -0.982774    -0.976846    -0.973854    -0.968901    -0.962035    -0.953323    -0.941906    -0.927027    -0.908071    -0.883759    -0.853214    -0.815309    -0.769039    -0.713934   -0.649869   -0.577198   -0.497775   -0.414192   -0.329494   -0.247390   -0.173111  -0.057061  -0.009465 -3.707650e-03
  -388.0         X  3.990760e-03  3.948110e-03  3.905920e-03  3.864180e-03  3.822880e-03     5.244130     5.168240     5.093630     5.020630     4.949180     4.879240     4.810740     4.743650     4.677910     4.613490     4.550330     4.488400     4.427670     4.368090     4.309620    -0.993477    -0.987484    -0.984460    -0.979452    -0.972511    -0.963705    -0.952163    -0.937121    -0.917958    -0.893381    -0.862502    -0.824183    -0.777408    -0.721702   -0.656939   -0.583476   -0.503188   -0.418695   -0.333077   -0.250081   -0.174995  -0.057682  -0.009568 -3.748210e-03
  -386.0         X  4.034540e-03  3.991430e-03  3.948770e-03  3.906570e-03  3.864830e-03     5.301370     5.224650     5.149220     5.075430     5.003200     4.932490     4.863250     4.795420     4.728970     4.663840     4.599990     4.537390     4.475990     4.415760     4.356650    -1.004330    -0.998270    -0.995212    -0.990149    -0.983132    -0.974229    -0.962561    -0.947354    -0.927981    -0.903135    -0.871918    -0.833179    -0.785893    -0.729577   -0.664106   -0.589841   -0.508676   -0.423261   -0.336710   -0.252809   -0.176905  -0.058313  -0.009673 -3.789330e-03
  -384.0         X  4.078930e-03  4.035340e-03  3.992220e-03  3.949560e-03  3.907350e-03     5.359410     5.281840     5.205590     5.130980     5.057960     4.986480     4.916480     4.847910     4.780730     4.714890     4.650340     4.587050     4.524980     4.464090     4.404340    -1.015330    -1.009200    -1.006110    -1.000990    -0.993900    -0.984899    -0.973103    -0.957729    -0.938143    -0.913024    -0.881464    -0.842300    -0.794494    -0.737561   -0.671372   -0.596293   -0.514239   -0.427890   -0.340392   -0.255574   -0.178840  -0.058952  -0.009779 -3.831030e-03
  -382.0         X  4.123950e-03  4.079880e-03  4.036280e-03  3.993140e-03  3.950470e-03     5.418240     5.339820     5.262730     5.187300     5.113490     5.041220     4.970450     4.901130     4.833200     4.766640     4.701380     4.637400     4.574650     4.513080     4.452680    -1.026480    -1.020290    -1.017160    -1.011990    -1.004820    -0.995717    -0.983791    -0.968248    -0.948446    -0.923050    -0.891142    -0.851547    -0.803215    -0.745655   -0.678738   -0.602834   -0.519879   -0.432583   -0.344125   -0.258378   -0.180803  -0.059600  -0.009887 -3.873300e-03
  -380.0         X  4.169580e-03  4.125030e-03  4.080950e-03  4.037340e-03  3.994190e-03     5.477890     5.398610     5.320670     5.244410     5.169780     5.096710     5.025160     4.955080     4.886410     4.819110     4.753140     4.688450     4.625000     4.562760     4.501690    -1.037790    -1.031530    -1.028370    -1.023140    -1.015890    -1.006690    -0.994627    -0.978912    -0.958892    -0.933215    -0.900955    -0.860922    -0.812057    -0.753861   -0.686207   -0.609466   -0.525598   -0.437341   -0.347910   -0.261220   -0.182793  -0.060257  -0.009996 -3.916170e-03
  -378.0         X  4.215860e-03  4.170810e-03  4.126240e-03  4.082150e-03  4.038530e-03     5.538370     5.458210     5.379410     5.302310     5.226850     5.152980     5.080640     5.009780     4.940350     4.872310     4.805610     4.740200     4.676060     4.613130     4.551390    -1.049260    -1.042930    -1.039730    -1.034440    -1.027110    -1.017810    -1.005610    -0.989725    -0.969483    -0.943521    -0.910904    -0.870428    -0.821022    -0.762182   -0.693779   -0.616190   -0.531396   -0.442165   -0.351748   -0.264102   -0.184811  -0.060923  -0.010107 -3.959640e-03
  -376.0         X  4.262790e-03  4.217240e-03  4.172180e-03  4.127590e-03  4.083490e-03     5.599700     5.518650     5.438970     5.361020     5.284720     5.210030     5.136890     5.065250     4.995050     4.926250     4.858810     4.792680     4.727830     4.664200     4.601770    -1.060880    -1.054480    -1.051250    -1.045900    -1.038490    -1.029080    -1.016760    -1.000690    -0.980222    -0.953972    -0.920992    -0.880067    -0.830112    -0.770619   -0.701458   -0.623008   -0.537275   -0.447056   -0.355639   -0.267025   -0.186856  -0.061599  -0.010219 -4.003710e-03
  -374.0         X  4.310380e-03  4.264320e-03  4.218750e-03  4.173670e-03  4.129080e-03     5.661880     5.579930     5.499370     5.420550     5.343400     5.267880     5.193930     5.121490     5.050510     4.980950     4.912760     4.845900     4.780320     4.715990     4.652870    -1.072670    -1.066200    -1.062930    -1.057520    -1.050030    -1.040520    -1.028050    -1.011810    -0.991112    -0.964569    -0.931222    -0.889840    -0.839329    -0.779174   -0.709243   -0.629922   -0.543236   -0.452015   -0.359585   -0.269988   -0.188931  -0.062284  -0.010333 -4.048410e-03
  -372.0         X  4.358640e-03  4.312070e-03  4.265990e-03  4.220410e-03  4.175310e-03     5.724930     5.642070     5.560610     5.480910     5.402910     5.326540     5.251770     5.178520     5.106750     5.036410     4.967460     4.899860     4.833550     4.768500     4.704680    -1.084630    -1.078080    -1.074780    -1.069310    -1.061730    -1.052110    -1.039510    -1.023080    -1.002150    -0.975314    -0.941595    -0.899751    -0.848675    -0.787849   -0.717137   -0.636932   -0.549280   -0.457044   -0.363585   -0.272992   -0.191034  -0.062978  -0.010449 -4.093740e-03
  -370.0         X  4.407580e-03  4.360490e-03  4.313890e-03  4.267800e-03  4.222200e-03     5.788870     5.705080     5.622710     5.542120     5.463250     5.386030     5.310410     5.236350     5.163780     5.092660     5.022940     4.954570     4.887520     4.821750     4.757210    -1.096750    -1.090130    -1.086790    -1.081260    -1.073600    -1.063870    -1.051120    -1.034510    -1.013350    -0.986211    -0.952113    -0.909800    -0.858153    -0.796645   -0.725143   -0.644041   -0.555409   -0.462144   -0.367642   -0.276039   -0.193167  -0.063682  -0.010566 -4.139710e-03
  -368.0         X  4.457220e-03  4.409590e-03  4.362480e-03  4.315860e-03  4.269750e-03     5.853710     5.768980     5.685690     5.604190     5.524440     5.446350     5.369890     5.294990     5.221610     5.149690     5.079190     5.010060     4.942260     4.875750     4.810490    -1.109040    -1.102350    -1.098970    -1.093380    -1.085630    -1.075790    -1.062900    -1.046110    -1.024710    -0.997262    -0.962780    -0.919992    -0.867764    -0.805566   -0.733261   -0.651249   -0.561625   -0.467315   -0.371756   -0.279128   -0.195330  -0.064397  -0.010685 -4.186330e-03
  -366.0         X  4.507560e-03  4.459400e-03  4.411750e-03  4.364610e-03  4.317980e-03     5.919470     5.833790     5.749560     5.667140     5.586490     5.507530     5.430210     5.354470     5.280260     5.207530     5.136240     5.066330     4.997770     4.930510     4.864520    -1.121510    -1.114740    -1.111330    -1.105670    -1.097830    -1.087890    -1.074850    -1.057860    -1.036220    -1.008470    -0.973598    -0.930327    -0.877511    -0.814613   -0.741494   -0.658560   -0.567928   -0.472559   -0.375928   -0.282261   -0.197523  -0.065121  -0.010805 -4.233620e-03
  -364.0         X  4.558620e-03  4.509920e-03  4.461730e-03  4.414050e-03  4.366890e-03     5.986160     5.899510     5.814330     5.730990     5.649420     5.569570     5.491380     5.414780     5.339740     5.266190     5.194090     5.123400     5.054060     4.986050     4.919310    -1.134160    -1.127310    -1.123860    -1.118140    -1.110210    -1.100150    -1.086970    -1.069790    -1.047900    -1.019830    -0.984569    -0.940809    -0.887396    -0.823787   -0.749843   -0.665974   -0.574320   -0.477878   -0.380159   -0.285439   -0.199747  -0.065856  -0.010928 -4.281570e-03
  -362.0         X  4.610410e-03  4.561150e-03  4.512420e-03  4.464200e-03  4.416510e-03     6.053790     5.966160     5.880020     5.795730     5.713250     5.632490     5.553410     5.475950     5.400060     5.325680     5.252770     5.181280     5.111160     5.042370     4.974880    -1.146980    -1.140060    -1.136560    -1.130780    -1.122760    -1.112590    -1.099260    -1.081880    -1.059750    -1.031360    -0.995697    -0.951440    -0.897422    -0.833092   -0.758311   -0.673493   -0.580803   -0.483272   -0.384450   -0.288661   -0.202003  -0.066601  -0.011052 -4.330220e-03
  -360.0         X  4.662950e-03  4.613120e-03  4.563830e-03  4.515070e-03  4.466830e-03     6.122390     6.033760     5.946640     5.861400     5.777980     5.696310     5.616330     5.538000     5.461240     5.386020     5.312280     5.239980     5.169060     5.099500     5.031240    -1.159990    -1.152990    -1.149450    -1.143600    -1.135490    -1.125200    -1.111720    -1.094150    -1.071760    -1.043050    -1.006980    -0.962223    -0.907590    -0.842530   -0.766899   -0.681119   -0.587379   -0.488742   -0.388802   -0.291929   -0.204291  -0.067356  -0.011177 -4.379560e-03
  -358.0         X  4.716230e-03  4.665840e-03  4.615990e-03  4.566670e-03  4.517880e-03     6.191960     6.102330     6.014220     5.928010     5.843640     5.761040     5.680150     5.600920     5.523300     5.447220     5.372640     5.299510     5.227800     5.157440     5.088410    -1.173180    -1.166100    -1.162520    -1.156610    -1.148410    -1.138000    -1.124360    -1.106590    -1.083950    -1.054910    -1.018430    -0.973159    -0.917904    -0.852102   -0.775610   -0.688853   -0.594048   -0.494290   -0.393216   -0.295244   -0.206612  -0.068123  -0.011305 -4.429610e-03
  -356.0         X  4.770280e-03  4.719320e-03  4.668890e-03  4.619010e-03  4.569660e-03     6.262530     6.171880     6.082760     5.995570     5.910230     5.826690     5.744880     5.664750     5.586240     5.509290     5.433860     5.359900     5.287370     5.216210     5.146390    -1.186560    -1.179400    -1.175780    -1.169800    -1.161500    -1.150980    -1.137190    -1.119210    -1.096310    -1.066940    -1.030040    -0.984252    -0.928365    -0.861811   -0.784446   -0.696699   -0.600812   -0.499918   -0.397693   -0.298606   -0.208966  -0.068900  -0.011435 -4.480370e-03
  -354.0         X  4.825120e-03  4.773560e-03  4.722560e-03  4.672110e-03  4.622190e-03     6.334120     6.242420     6.152280     6.064090     5.977780     5.893280     5.810540     5.729490     5.650080     5.572260     5.495960     5.421160     5.347790     5.275820     5.205200    -1.200140    -1.192890    -1.189230    -1.183180    -1.174790    -1.164140    -1.150190    -1.132010    -1.108850    -1.079140    -1.041820    -0.995504    -0.938976    -0.871659   -0.793408   -0.704656   -0.607673   -0.505626   -0.402234   -0.302016   -0.211353  -0.069689  -0.011566 -4.531880e-03
  -352.0         X  4.880740e-03  4.828600e-03  4.777010e-03  4.725970e-03  4.675480e-03     6.406730     6.313980     6.222810     6.133610     6.046300     5.960840     5.877140     5.795160     5.714840     5.636120     5.558960     5.483290     5.409090     5.336290     5.264860    -1.213910    -1.206580    -1.202880    -1.196760    -1.188270    -1.177500    -1.163390    -1.145000    -1.121570    -1.091520    -1.053760    -1.006920    -0.949740    -0.881649   -0.802499   -0.712728   -0.614632   -0.511416   -0.406840   -0.305476   -0.213775  -0.070489  -0.011699 -4.584120e-03
  -350.0         X  4.937180e-03  4.884430e-03  4.832240e-03  4.780620e-03  4.729540e-03     6.480390     6.386570     6.294350     6.204120     6.115810     6.029360     5.944710     5.861780     5.780540     5.700910     5.622860     5.546320     5.471260     5.397630     5.325380    -1.227870    -1.220460    -1.216720    -1.210530    -1.201940    -1.191050    -1.176770    -1.158170    -1.134470    -1.104070    -1.065880    -1.018500    -0.960659    -0.891783   -0.811721   -0.720917   -0.621692   -0.517290   -0.411512   -0.308985   -0.216232  -0.071300  -0.011834 -4.637130e-03
  -348.0         X  4.994430e-03  4.941070e-03  4.888280e-03  4.836060e-03  4.784390e-03     6.555110     6.460210     6.366920     6.275650     6.186330     6.098880     6.013240     5.929360     5.847180     5.766640     5.687680     5.610270     5.534340     5.459850     5.386770    -1.242050    -1.234550    -1.230760    -1.224500    -1.215810    -1.204790    -1.190350    -1.171530    -1.147560    -1.116810    -1.078180    -1.030240    -0.971735    -0.902063   -0.821076   -0.729223   -0.628854   -0.523248   -0.416252   -0.312544   -0.218724  -0.072123  -0.011971 -4.690900e-03
  -346.0         X  5.052520e-03  4.998540e-03  4.945140e-03  4.892310e-03  4.840040e-03     6.630910     6.534920     6.440550     6.348220     6.257860     6.169400     6.082770     5.997920     5.914790     5.833310     5.753450     5.675130     5.598330     5.522980     5.449050    -1.256420    -1.248840    -1.245010    -1.238670    -1.229880    -1.218740    -1.204130    -1.185090    -1.160830    -1.129730    -1.090650    -1.042160    -0.982973    -0.912493   -0.830566   -0.737650   -0.636119   -0.529293   -0.421061   -0.316155   -0.221252  -0.072959  -0.012110 -4.745460e-03
  -344.0         X  5.111450e-03  5.056850e-03  5.002820e-03  4.949380e-03  4.896500e-03     6.707820     6.610710     6.515250     6.421840     6.330430     6.240950     6.153320     6.067480     5.983380     5.900960     5.820160     5.740940     5.663240     5.587020     5.512240    -1.271010    -1.263330    -1.259460    -1.253050    -1.244160    -1.232880    -1.218100    -1.198840    -1.174310    -1.142840    -1.103300    -1.054250    -0.994374    -0.923074   -0.840195   -0.746199   -0.643490   -0.535425   -0.425939   -0.319819   -0.223817  -0.073806  -0.012251 -4.800820e-03
  -342.0         X  5.171250e-03  5.116010e-03  5.061350e-03  5.007280e-03  4.953790e-03     6.785850     6.687610     6.591030     6.496540     6.404060     6.313530     6.224880     6.138050     6.052970     5.969590     5.887850     5.807710     5.729110     5.652000     5.576340    -1.285810    -1.278040    -1.274130    -1.267640    -1.258650    -1.247240    -1.232280    -1.212800    -1.187980    -1.156140    -1.116140    -1.066510    -1.005940    -0.933809   -0.849964   -0.754873   -0.650968   -0.541646   -0.430888   -0.323536   -0.226419  -0.074666  -0.012394 -4.856980e-03
  -340.0         X  5.231930e-03  5.176040e-03  5.120740e-03  5.066040e-03  5.011920e-03     6.865010     6.765620     6.667920     6.572320     6.478770     6.387180     6.297490     6.209650     6.123570     6.039220     5.956530     5.875450     5.795930     5.717920     5.641380    -1.300820    -1.292970    -1.289000    -1.282440    -1.273340    -1.261800    -1.246670    -1.226960    -1.201840    -1.169630    -1.129170    -1.078960    -1.017680    -0.944700   -0.859875   -0.763673   -0.658555   -0.547958   -0.435909   -0.327306   -0.229059  -0.075538  -0.012539 -4.913980e-03
