Name:A X_Dim:600 Y_Dim:60 Conductance:100.0

### Channel Times ###
      Start      End
0   -1.9505  -1.9495
1   -1.8505  -1.8495
2   -1.7505  -1.7495
3   -1.6505  -1.6495
4   -1.5505  -1.5495
5   -1.4500  -1.4490
6   -1.3505  -1.3495
7   -1.2505  -1.2495
8   -1.1505  -1.1495
9   -1.0505  -1.0495
10  -0.9505  -0.9495
11  -0.8505  -0.8495
12  -0.7505  -0.7495
13  -0.6505  -0.6495
14  -0.5505  -0.5495
15  -0.4505  -0.4495
16  -0.3505  -0.3495
17  -0.2505  -0.2495
18  -0.1505  -0.1495
19  -0.0505  -0.0495
20   0.0250   0.0260
21   0.0545   0.0555
22   0.0695   0.0705
23   0.0945   0.0955
24   0.1295   0.1305
25   0.1745   0.1755
26   0.2345   0.2355
27   0.3145   0.3155
28   0.4195   0.4205
29   0.5595   0.5605
30   0.7445   0.7455
31   0.9895   0.9905
32   1.3145   1.3155
33   1.7445   1.7455
34   2.3145   2.3155
35   3.0745   3.0755
36   4.0845   4.0855
37   5.4245   5.4255
38   7.2045   7.2055
39   9.5695   9.5705
40  12.6595  12.6605
41  22.7295  22.7305
42  39.3945  39.3955
43  48.1145  48.1155

### Data ###
 Station Component             0             1             2             3             4            5            6            7            8            9           10           11           12           13           14           15           16           17           18           19           20           21           22           23           24           25           26           27           28           29           30           31           32          33          34          35         36         37        38            39            40            41            42            43
  -400.0         X  2.840560e-21  2.551600e-21  2.292020e-21  2.058860e-21  1.849410e-21     4.600480     4.010430     3.518400     3.102730     2.746690     2.438570     2.169860     1.934130     1.726370     1.542630     1.379660     1.234800     1.105790     0.990736     0.888004    -3.950840    -3.779300    -3.696370    -3.564060    -3.390240    -3.184180    -2.935790    -2.643780    -2.315270    -1.952190    -1.570280    -1.187240    -0.826671   -0.516302   -0.278447   -0.122764  -0.041441  -0.009822 -0.001452 -1.146460e-04 -4.158710e-06 -8.435070e-11 -1.449650e-18 -1.254180e-22
  -398.0         X  2.871920e-21  2.579760e-21  2.317330e-21  2.081590e-21  1.869830e-21     4.649840     4.053460     3.556150     3.136020     2.776160     2.464740     2.193150     1.954890     1.744910     1.559190     1.394480     1.248060     1.117670     1.001380     0.897545    -3.993220    -3.819840    -3.736010    -3.602290    -3.426600    -3.218330    -2.967270    -2.672130    -2.340100    -1.973130    -1.587130    -1.199980    -0.835546   -0.521848   -0.281441   -0.124086  -0.041888  -0.009928 -0.001468 -1.158890e-04 -4.203920e-06 -8.527420e-11 -1.465680e-18 -1.268120e-22
  -396.0         X  2.903730e-21  2.608340e-21  2.342990e-21  2.104640e-21  1.890540e-21     4.699870     4.097070     3.594410     3.169760     2.806030     2.491260     2.216750     1.975930     1.763690     1.575980     1.409490     1.261500     1.129710     1.012170     0.907216    -4.036170    -3.860920    -3.776200    -3.641030    -3.463450    -3.252940    -2.999180    -2.700870    -2.365270    -1.994350    -1.604200    -1.212890    -0.844542   -0.527471   -0.284476   -0.125425  -0.042341  -0.010036 -0.001484 -1.171500e-04 -4.249760e-06 -8.621070e-11 -1.481940e-18 -1.282260e-22
  -394.0         X  2.935990e-21  2.637310e-21  2.369030e-21  2.128030e-21  1.911550e-21     4.750580     4.141280     3.633190     3.203960     2.836310     2.518150     2.240680     1.997260     1.782730     1.593000     1.424720     1.275130     1.141910     1.023100     0.917019    -4.079710    -3.902570    -3.816930    -3.680300    -3.500810    -3.288030    -3.031530    -2.730000    -2.390780    -2.015860    -1.621510    -1.225980    -0.853661   -0.533170   -0.287553   -0.126783  -0.042800  -0.010145 -0.001500 -1.184270e-04 -4.296240e-06 -8.716040e-11 -1.498430e-18 -1.296600e-22
  -392.0         X  2.968710e-21  2.666710e-21  2.395430e-21  2.151750e-21  1.932860e-21     4.801990     4.186090     3.672510     3.238630     2.867000     2.545400     2.264930     2.018880     1.802030     1.610250     1.440150     1.288940     1.154280     1.034190     0.926957    -4.123850    -3.944790    -3.858220    -3.720110    -3.538680    -3.323590    -3.064320    -2.759520    -2.416640    -2.037670    -1.639050    -1.239250    -0.862905   -0.538947   -0.290671   -0.128160  -0.043265  -0.010255 -0.001516 -1.197230e-04 -4.343360e-06 -8.812350e-11 -1.515160e-18 -1.311160e-22
  -390.0         X  3.001900e-21  2.696530e-21  2.422220e-21  2.175820e-21  1.954480e-21     4.854100     4.231510     3.712360     3.273770     2.898120     2.573030     2.289520     2.040800     1.821600     1.627730     1.455790     1.302940     1.166820     1.045430     0.937031    -4.168590    -3.987580    -3.900070    -3.760470    -3.577060    -3.359640    -3.097550    -2.789450    -2.442850    -2.059770    -1.656840    -1.252700    -0.872275   -0.544804   -0.293833   -0.129556  -0.043737  -0.010367 -0.001533 -1.210360e-04 -4.391140e-06 -8.910020e-11 -1.532130e-18 -1.325920e-22
  -388.0         X  3.035570e-21  2.726780e-21  2.449390e-21  2.200230e-21  1.976410e-21     4.906930     4.277560     3.752760     3.309400     2.929660     2.601040     2.314440     2.063010     1.841430     1.645460     1.471640     1.317130     1.179530     1.056820     0.947243    -4.213940    -4.030960    -3.942500    -3.801380    -3.615970    -3.396180    -3.131250    -2.819800    -2.469420    -2.082180    -1.674860    -1.266340    -0.881775   -0.550741   -0.297038   -0.130970  -0.044215  -0.010481 -0.001550 -1.223680e-04 -4.439600e-06 -9.009080e-11 -1.549350e-18 -1.340910e-22
  -386.0         X  3.069730e-21  2.757460e-21  2.476960e-21  2.224990e-21  1.998650e-21     4.960490     4.324240     3.793710     3.345520     2.961630     2.629430     2.339710     2.085540     1.861540     1.663430     1.487720     1.331520     1.192420     1.068370     0.957597    -4.259920    -4.074940    -3.985510    -3.842850    -3.655420    -3.433230    -3.165400    -2.850560    -2.496360    -2.104900    -1.693140    -1.280160    -0.891405   -0.556760   -0.300287   -0.132405  -0.044700  -0.010596 -0.001567 -1.237190e-04 -4.488730e-06 -9.109550e-11 -1.566820e-18 -1.356110e-22
  -384.0         X  3.104390e-21  2.788600e-21  2.504930e-21  2.250120e-21  2.021220e-21     5.014780     4.371570     3.835230     3.382140     2.994050     2.658210     2.365320     2.108380     1.881930     1.681650     1.504020     1.346110     1.205490     1.080080     0.968094    -4.306540    -4.119530    -4.029120    -3.884890    -3.695410    -3.470790    -3.200030    -2.881740    -2.523670    -2.127930    -1.711670    -1.294180    -0.901168   -0.562863   -0.303582   -0.133859  -0.045192  -0.010713 -0.001584 -1.250880e-04 -4.538560e-06 -9.211450e-11 -1.584540e-18 -1.371540e-22
  -382.0         X  3.139550e-21  2.820180e-21  2.533300e-21  2.275600e-21  2.044120e-21     5.069830     4.419550     3.877330     3.419260     3.026920     2.687390     2.391290     2.131530     1.902600     1.700120     1.520540     1.360900     1.218740     1.091950     0.978736    -4.353790    -4.164730    -4.073330    -3.927520    -3.735960    -3.508870    -3.235140    -2.913350    -2.551360    -2.151270    -1.730450    -1.308380    -0.911067   -0.569050   -0.306922   -0.135334  -0.045690  -0.010831 -0.001602 -1.264770e-04 -4.589090e-06 -9.314810e-11 -1.602520e-18 -1.387190e-22
  -380.0         X  3.175220e-21  2.852230e-21  2.562090e-21  2.301470e-21  2.067350e-21     5.125640     4.468200     3.920010     3.456900     3.060240     2.716980     2.417620     2.155000     1.923550     1.718850     1.537290     1.375900     1.232170     1.103980     0.989526    -4.401710    -4.210560    -4.118160    -3.970740    -3.777070    -3.547480    -3.270740    -2.945410    -2.579430    -2.174950    -1.749500    -1.322790    -0.921103   -0.575322   -0.310308   -0.136829  -0.046196  -0.010951 -0.001620 -1.278850e-04 -4.640340e-06 -9.419660e-11 -1.620770e-18 -1.403070e-22
  -378.0         X  3.211420e-21  2.884740e-21  2.591300e-21  2.327710e-21  2.090930e-21     5.182230     4.517530     3.963280     3.495060     3.094030     2.746980     2.444320     2.178800     1.944800     1.737840     1.554280     1.391100     1.245790     1.116190     1.000470    -4.450290    -4.257030    -4.163600    -4.014560    -3.818750    -3.586620    -3.306820    -2.977910    -2.607890    -2.198950    -1.768810    -1.337390    -0.931279   -0.581683   -0.313742   -0.138345  -0.046708  -0.011073 -0.001638 -1.293140e-04 -4.692310e-06 -9.526010e-11 -1.639280e-18 -1.419200e-22
  -376.0         X  3.248150e-21  2.917740e-21  2.620940e-21  2.354330e-21  2.114850e-21     5.239600     4.567540     4.007150     3.533750     3.128280     2.777400     2.471390     2.202930     1.966340     1.757090     1.571500     1.406520     1.259600     1.128560     1.011560    -4.499550    -4.304150    -4.209680    -4.058990    -3.861010    -3.626310    -3.343420    -3.010860    -2.636750    -2.223280    -1.788390    -1.352200    -0.941596   -0.588132   -0.317224   -0.139882  -0.047228  -0.011196 -0.001656 -1.307620e-04 -4.745020e-06 -9.633900e-11 -1.658070e-18 -1.435560e-22
  -374.0         X  3.285410e-21  2.951220e-21  2.651020e-21  2.381350e-21  2.139120e-21     5.297780     4.618250     4.051640     3.572990     3.163020     2.808240     2.498840     2.227400     1.988190     1.776620     1.588960     1.422150     1.273600     1.141110     1.022810    -4.549500    -4.351920    -4.256410    -4.104040    -3.903860    -3.666560    -3.380520    -3.044270    -2.666020    -2.247960    -1.808240    -1.367220    -0.952058   -0.594671   -0.320754   -0.141440  -0.047755  -0.011322 -0.001674 -1.322310e-04 -4.798490e-06 -9.743350e-11 -1.677130e-18 -1.452170e-22
  -372.0         X  3.323230e-21  2.985190e-21  2.681540e-21  2.408770e-21  2.163750e-21     5.356780     4.669670     4.096760     3.612770     3.198240     2.839520     2.526670     2.252220     2.010340     1.796410     1.606670     1.438000     1.287800     1.153830     1.034210    -4.600140    -4.400370    -4.303790    -4.149720    -3.947310    -3.707360    -3.418140    -3.078150    -2.695690    -2.272980    -1.828370    -1.382450    -0.962667   -0.601302   -0.324335   -0.143021  -0.048290  -0.011449 -0.001693 -1.337210e-04 -4.852720e-06 -9.854390e-11 -1.696480e-18 -1.469020e-22
  -370.0         X  3.361610e-21  3.019670e-21  2.712510e-21  2.436590e-21  2.188740e-21     5.416600     4.721820     4.142500     3.653120     3.233960     2.871230     2.554890     2.277380     2.032800     1.816490     1.624630     1.454080     1.302190     1.166740     1.045780    -4.651500    -4.449490    -4.351830    -4.196040    -3.991370    -3.748740    -3.456290    -3.112510    -2.725780    -2.298350    -1.848790    -1.397890    -0.973424   -0.608027   -0.327965   -0.144624  -0.048832  -0.011577 -0.001712 -1.352320e-04 -4.907730e-06 -9.967040e-11 -1.716110e-18 -1.486130e-22
  -368.0         X  3.400560e-21  3.054660e-21  2.743940e-21  2.464830e-21  2.214110e-21     5.477260     4.774700     4.188890     3.694030     3.270180     2.903390     2.583510     2.302890     2.055580     1.836850     1.642840     1.470380     1.316800     1.179820     1.057510    -4.703580    -4.499310    -4.400560    -4.243020    -4.036050    -3.790710    -3.494980    -3.147350    -2.756290    -2.324080    -1.869490    -1.413550    -0.984334   -0.614846   -0.331647   -0.146250  -0.049382  -0.011708 -0.001732 -1.367650e-04 -4.963530e-06 -1.008130e-10 -1.736040e-18 -1.503500e-22
  -366.0         X  3.440090e-21  3.090170e-21  2.775840e-21  2.493490e-21  2.239860e-21     5.538790     4.828330     4.235940     3.735520     3.306910     2.936010     2.612540     2.328770     2.078680     1.857490     1.661310     1.486910     1.331600     1.193090     1.069410    -4.756400    -4.549830    -4.449960    -4.290650    -4.081360    -3.833260    -3.534220    -3.182680    -2.787230    -2.350180    -1.890480    -1.429430    -0.995397   -0.621762   -0.335381   -0.147899  -0.049939  -0.011840 -0.001751 -1.383200e-04 -5.020130e-06 -1.019730e-10 -1.756260e-18 -1.521130e-22
  -364.0         X  3.480210e-21  3.126210e-21  2.808220e-21  2.522570e-21  2.265990e-21     5.601180     4.882710     4.283650     3.777600     3.344160     2.969080     2.641980     2.355010     2.102110     1.878430     1.680040     1.503680     1.346620     1.206550     1.081470    -4.809970    -4.601060    -4.500070    -4.338970    -4.127320    -3.876420    -3.574010    -3.218510    -2.818610    -2.376640    -1.911770    -1.445530    -1.006620   -0.628775   -0.339168   -0.149571  -0.050505  -0.011975 -0.001771 -1.398970e-04 -5.077560e-06 -1.031500e-10 -1.776790e-18 -1.539030e-22
  -362.0         X  3.520930e-21  3.162790e-21  2.841080e-21  2.552100e-21  2.292510e-21     5.664460     4.937870     4.332040     3.820270     3.381940     3.002630     2.671830     2.381630     2.125870     1.899660     1.699030     1.520680     1.361850     1.220200     1.093710    -4.864290    -4.653030    -4.550890    -4.387960    -4.173920    -3.920190    -3.614360    -3.254850    -2.850430    -2.403480    -1.933370    -1.461860    -1.018000   -0.635889   -0.343009   -0.151267  -0.051078  -0.012111 -0.001791 -1.414970e-04 -5.135810e-06 -1.043440e-10 -1.797630e-18 -1.557200e-22
  -360.0         X  3.562260e-21  3.199920e-21  2.874440e-21  2.582060e-21  2.319430e-21     5.728640     4.993810     4.381120     3.863550     3.420260     3.036650     2.702110     2.408620     2.149970     1.921200     1.718300     1.537930     1.377300     1.234040     1.106120    -4.919390    -4.705730    -4.602440    -4.437660    -4.221190    -3.964580    -3.655290    -3.291700    -2.882710    -2.430700    -1.955270    -1.478430    -1.029540   -0.643103   -0.346904   -0.152987  -0.051660  -0.012249 -0.001812 -1.431200e-04 -5.194910e-06 -1.055550e-10 -1.818780e-18 -1.575650e-22
  -358.0         X  3.604210e-21  3.237610e-21  2.908300e-21  2.612480e-21  2.346750e-21     5.793730     5.050550     4.430890     3.907450     3.459120     3.071160     2.732820     2.436000     2.174410     1.943050     1.737840     1.555420     1.392970     1.248080     1.118710    -4.975270    -4.759180    -4.654710    -4.488060    -4.269130    -4.009610    -3.696800    -3.329080    -2.915450    -2.458300    -1.977480    -1.495230    -1.041240   -0.650421   -0.350856   -0.154732  -0.052250  -0.012389 -0.001833 -1.447670e-04 -5.254880e-06 -1.067850e-10 -1.840250e-18 -1.594380e-22
  -356.0         X  3.646800e-21  3.275870e-21  2.942670e-21  2.643360e-21  2.374490e-21     5.859760     5.108100     4.481380     3.951970     3.498540     3.106160     2.763970     2.463770     2.199200     1.965200     1.757660     1.573170     1.408860     1.262320     1.131470    -5.031960    -4.813400    -4.707740    -4.539190    -4.317760    -4.055280    -3.738900    -3.367000    -2.948650    -2.486300    -2.000010    -1.512270    -1.053120   -0.657843   -0.354864   -0.156502  -0.052849  -0.012532 -0.001854 -1.464370e-04 -5.315710e-06 -1.080320e-10 -1.862050e-18 -1.613400e-22
  -354.0         X  3.690040e-21  3.314710e-21  2.977560e-21  2.674710e-21  2.402650e-21     5.926730     5.166470     4.532590     3.997140     3.538530     3.141670     2.795570     2.491940     2.224350     1.987680     1.777770     1.591160     1.424980     1.276770     1.144430    -5.089450    -4.868390    -4.761520    -4.591040    -4.367080    -4.101600    -3.781610    -3.405460    -2.982330    -2.514710    -2.022860    -1.529550    -1.065160   -0.665372   -0.358929   -0.158297  -0.053456  -0.012676 -0.001875 -1.481320e-04 -5.377440e-06 -1.092990e-10 -1.884170e-18 -1.632710e-22
  -352.0         X  3.733930e-21  3.354140e-21  3.012990e-21  2.706530e-21  2.431240e-21     5.994670     5.225690     4.584540     4.042950     3.579090     3.177680     2.827620     2.520510     2.249860     2.010480     1.798160     1.609420     1.441330     1.291420     1.157560    -5.147770    -4.924180    -4.816080    -4.643640    -4.417110    -4.148590    -3.824930    -3.444470    -3.016500    -2.543520    -2.046040    -1.547090    -1.077380   -0.673010   -0.363053   -0.160118  -0.054072  -0.012822 -0.001897 -1.498520e-04 -5.440080e-06 -1.105840e-10 -1.906640e-18 -1.652320e-22
  -350.0         X  3.778490e-21  3.394180e-21  3.048950e-21  2.738840e-21  2.460270e-21     6.063580     5.285760     4.637240     4.089420     3.620230     3.214210     2.860130     2.549490     2.275730     2.033600     1.818850     1.627940     1.457920     1.306290     1.170890    -5.206940    -4.980760    -4.871420    -4.697000    -4.467870    -4.196250    -3.868870    -3.484040    -3.051150    -2.572740    -2.069550    -1.564870    -1.089770   -0.680757   -0.367237   -0.161966  -0.054697  -0.012971 -0.001919 -1.515970e-04 -5.503640e-06 -1.118880e-10 -1.929450e-18 -1.672240e-22
  -348.0         X  3.823740e-21  3.434820e-21  3.085460e-21  2.771640e-21  2.489740e-21     6.133490     5.346690     4.690690     4.136560     3.661970     3.251270     2.893110     2.578900     2.301980     2.057070     1.839830     1.646730     1.474750     1.321370     1.184410    -5.266950    -5.038170    -4.927570    -4.751130    -4.519350    -4.244610    -3.913450    -3.524180    -3.086310    -2.602390    -2.093410    -1.582910    -1.102340   -0.688616   -0.371481   -0.163840  -0.055331  -0.013122 -0.001941 -1.533670e-04 -5.568130e-06 -1.132120e-10 -1.952610e-18 -1.692460e-22
  -346.0         X  3.869670e-21  3.476090e-21  3.122540e-21  2.804950e-21  2.519660e-21     6.204420     5.408510     4.744930     4.184390     3.704310     3.288870     2.926570     2.608730     2.328610     2.080870     1.861120     1.665780     1.491820     1.336670     1.198130    -5.327840    -5.096400    -4.984520    -4.806050    -4.571590    -4.293660    -3.958670    -3.564910    -3.121970    -2.632460    -2.117600    -1.601220    -1.115100   -0.696590   -0.375787   -0.165742  -0.055975  -0.013274 -0.001964 -1.551640e-04 -5.633580e-06 -1.145560e-10 -1.976130e-18 -1.713000e-22
  -344.0         X  3.916320e-21  3.517990e-21  3.160180e-21  2.838770e-21  2.550040e-21     6.276370     5.471220     4.799940     4.232910     3.747260     3.327010     2.960510     2.638990     2.355630     2.105010     1.882720     1.685120     1.509140     1.352190     1.212040    -5.389610    -5.155490    -5.042310    -4.861760    -4.624570    -4.343420    -4.004550    -3.606220    -3.158160    -2.662970    -2.142150    -1.619790    -1.128030   -0.704679   -0.380155   -0.167671  -0.056627  -0.013430 -0.001987 -1.569870e-04 -5.700000e-06 -1.159200e-10 -2.000010e-18 -1.733860e-22
  -342.0         X  3.963680e-21  3.560540e-21  3.198410e-21  2.873110e-21  2.580890e-21     6.349370     5.534850     4.855760     4.282130     3.790840     3.365710     2.994950     2.669690     2.383040     2.129510     1.904640     1.704740     1.526710     1.367940     1.226160    -5.452280    -5.215430    -5.100930    -4.918280    -4.678340    -4.393910    -4.051100    -3.648140    -3.194860    -2.693930    -2.167060    -1.638630    -1.141160   -0.712886   -0.384588   -0.169629  -0.057290  -0.013587 -0.002010 -1.588370e-04 -5.767410e-06 -1.173050e-10 -2.024260e-18 -1.755050e-22
  -340.0         X  4.011780e-21  3.603750e-21  3.237230e-21  2.907980e-21  2.612220e-21     6.423440     5.599410     4.912390     4.332080     3.835060     3.404970     3.029890     2.700840     2.410850     2.154370     1.926870     1.724640     1.544540     1.383910     1.240480    -5.515860    -5.276250    -5.160410    -4.975630    -4.732880    -4.445140    -4.098320    -3.690660    -3.232110    -2.725340    -2.192330    -1.657740    -1.154480   -0.721213   -0.389085   -0.171615  -0.057961  -0.013747 -0.002034 -1.607140e-04 -5.835830e-06 -1.187100e-10 -2.048890e-18 -1.776580e-22
