Name:A X_Dim:600 Y_Dim:200 Conductance:100.0

### Channel Times ###
      Start      End
0   -1.9505  -1.9495
1   -1.8505  -1.8495
2   -1.7505  -1.7495
3   -1.6505  -1.6495
4   -1.5505  -1.5495
5   -1.4500  -1.4490
6   -1.3505  -1.3495
7   -1.2505  -1.2495
8   -1.1505  -1.1495
9   -1.0505  -1.0495
10  -0.9505  -0.9495
11  -0.8505  -0.8495
12  -0.7505  -0.7495
13  -0.6505  -0.6495
14  -0.5505  -0.5495
15  -0.4505  -0.4495
16  -0.3505  -0.3495
17  -0.2505  -0.2495
18  -0.1505  -0.1495
19  -0.0505  -0.0495
20   0.0250   0.0260
21   0.0545   0.0555
22   0.0695   0.0705
23   0.0945   0.0955
24   0.1295   0.1305
25   0.1745   0.1755
26   0.2345   0.2355
27   0.3145   0.3155
28   0.4195   0.4205
29   0.5595   0.5605
30   0.7445   0.7455
31   0.9895   0.9905
32   1.3145   1.3155
33   1.7445   1.7455
34   2.3145   2.3155
35   3.0745   3.0755
36   4.0845   4.0855
37   5.4245   5.4255
38   7.2045   7.2055
39   9.5695   9.5705
40  12.6595  12.6605
41  22.7295  22.7305
42  39.3945  39.3955
43  48.1145  48.1155

### Data ###
 Station Component             0             1             2             3             4             5             6             7            8            9           10           11           12           13           14           15           16           17           18           19           20           21           22           23           24           25           26           27           28           29           30           31           32           33          34          35          36          37          38         39         40        41            42            43
  -400.0         X  1.514310e-06  1.466630e-06  1.420460e-06  1.375730e-06  1.332420e-06     21.488000     20.415200     19.428500    18.520200    17.679900    16.898800    16.169900    15.487400    14.846200    14.242400    13.672300    13.132900    12.621700    12.136300    11.674900   -10.432500   -10.223200   -10.119700    -9.951430    -9.724180    -9.445420    -9.095320    -8.662890    -8.147200    -7.536500    -6.838150    -6.060030    -5.217790    -4.338030   -3.450710   -2.590060   -1.803990   -1.138460   -0.628792  -0.289965  -0.106609 -0.004192 -2.018460e-05 -1.239920e-06
  -398.0         X  1.528250e-06  1.480130e-06  1.433530e-06  1.388390e-06  1.344680e-06     21.686200     20.603300     19.607200    18.690500    17.842300    17.053900    16.318200    15.629300    14.982200    14.372700    13.797300    13.253000    12.737000    12.247200    11.781500   -10.529800   -10.318600   -10.214100   -10.044200    -9.814750    -9.533330    -9.179890    -8.743340    -8.222740    -7.606250    -6.901300    -6.115860    -5.265720    -4.377770   -3.482230   -2.613660   -1.820390   -1.148800   -0.634500  -0.292600  -0.107580 -0.004231 -2.037030e-05 -1.251330e-06
  -396.0         X  1.542340e-06  1.493780e-06  1.446750e-06  1.401200e-06  1.357080e-06     21.886600     20.793500     19.788100    18.862700    18.006500    17.210800    16.468200    15.772800    15.119700    14.504600    13.923800    13.374400    12.853700    12.359300    11.889300   -10.628300   -10.415000   -10.309500   -10.138000    -9.906370    -9.622250    -9.265430    -8.824710    -8.299150    -7.676800    -6.965170    -6.172320    -5.314200    -4.417960   -3.514110   -2.637520   -1.836970   -1.159250   -0.640271  -0.295264  -0.108562 -0.004269 -2.055800e-05 -1.262870e-06
  -394.0         X  1.556590e-06  1.507580e-06  1.460120e-06  1.414150e-06  1.369620e-06     22.089300     20.985800     19.970900    19.036800    18.172600    17.369400    16.619900    15.918000    15.258800    14.637900    14.051700    13.497200    12.971600    12.472700    11.998300   -10.727900   -10.512600   -10.406100   -10.232900    -9.999050    -9.712210    -9.351960    -8.907020    -8.376440    -7.748160    -7.029780    -6.229420    -5.363230    -4.458600   -3.546340   -2.661650   -1.853740   -1.169820   -0.646107  -0.297958  -0.109554 -0.004309 -2.074790e-05 -1.274540e-06
  -392.0         X  1.571010e-06  1.521550e-06  1.473640e-06  1.427240e-06  1.382310e-06     22.294400     21.180400     20.155900    19.213000    18.340600    17.529800    16.773200    16.064800    15.399400    14.772700    14.181100    13.621400    13.090900    12.587300    12.108500   -10.828700   -10.611300   -10.503800   -10.328900   -10.092800    -9.803200    -9.439490    -8.990280    -8.454620    -7.820340    -7.095120    -6.287180    -5.412810    -4.499700   -3.578930   -2.686040   -1.870700   -1.180500   -0.652008  -0.300682  -0.110558 -0.004348 -2.093990e-05 -1.286340e-06
  -390.0         X  1.585590e-06  1.535670e-06  1.487310e-06  1.440490e-06  1.395130e-06     22.501800     21.377200     20.342900    19.391100    18.510500    17.692000    16.928400    16.213300    15.541600    14.909000    14.311900    13.747000    13.211500    12.703300    12.220000   -10.930700   -10.711100   -10.602600   -10.426000   -10.187600    -9.895250    -9.528040    -9.074510    -8.533710    -7.893350    -7.161210    -6.345590    -5.462960    -4.541260   -3.611900   -2.710720   -1.887840   -1.191310   -0.657975  -0.303437  -0.111573 -0.004389 -2.113410e-05 -1.298280e-06
  -388.0         X  1.600330e-06  1.549950e-06  1.501150e-06  1.453880e-06  1.408110e-06     22.711500     21.576200     20.532100    19.571200    18.682300    17.856100    17.085200    16.363400    15.685400    15.046900    14.444200    13.874000    13.333500    12.820500    12.332700   -11.033800   -10.812200   -10.702500   -10.524300   -10.283600    -9.988370    -9.617610    -9.159710    -8.613700    -7.967210    -7.228060    -6.404670    -5.513680    -4.583300   -3.645230   -2.735660   -1.905180   -1.202240   -0.664009  -0.306222  -0.112599 -0.004429 -2.133060e-05 -1.310360e-06
  -386.0         X  1.615250e-06  1.564390e-06  1.515130e-06  1.467430e-06  1.421230e-06     22.923700     21.777500     20.723500    19.753500    18.856100    18.022100    17.243900    16.515200    15.830900    15.186400    14.577900    14.002400    13.456900    12.939100    12.446700   -11.138100   -10.914300   -10.803700   -10.623700   -10.380700   -10.082600    -9.708220    -9.245900    -8.694620    -8.041910    -7.295680    -6.464430    -5.564980    -4.625810   -3.678940   -2.760890   -1.922710   -1.213290   -0.670110  -0.309038  -0.113637 -0.004470 -2.152920e-05 -1.322570e-06
  -384.0         X  1.630330e-06  1.579000e-06  1.529280e-06  1.481130e-06  1.434500e-06     23.138300     21.981200     20.917000    19.937800    19.031800    18.189900    17.404400    16.668800    15.978000    15.327400    14.713200    14.132300    13.581700    13.059000    12.562000   -11.243700   -11.017700   -10.906000   -10.724300   -10.478900   -10.177900    -9.799890    -9.333080    -8.776480    -8.117470    -7.364070    -6.524880    -5.616860    -4.668800   -3.713030   -2.786410   -1.940440   -1.224460   -0.676279  -0.311887  -0.114686 -0.004512 -2.173020e-05 -1.334920e-06
  -382.0         X  1.645580e-06  1.593770e-06  1.543590e-06  1.494990e-06  1.447920e-06     23.355400     22.187100     21.112800    20.124200    19.209600    18.359700    17.566600    16.824100    16.126800    15.470000    14.850100    14.263600    13.707900    13.180200    12.678600   -11.350500   -11.122300   -11.009500   -10.826000   -10.578200   -10.274300    -9.892630    -9.421290    -8.859290    -8.193910    -7.433260    -6.586010    -5.669340    -4.712290   -3.747500   -2.812210   -1.958370   -1.235750   -0.682517  -0.314767  -0.115748 -0.004554 -2.193340e-05 -1.347410e-06
  -380.0         X  1.661010e-06  1.608720e-06  1.558070e-06  1.509010e-06  1.461500e-06     23.575000     22.395500     21.310800    20.312700    19.389400    18.531400    17.730800    16.981200    16.277200    15.614300    14.988500    14.396500    13.835500    13.302900    12.796500   -11.458600   -11.228200   -11.114200   -10.928900   -10.678700   -10.371800    -9.986450    -9.510520    -8.943060    -8.271240    -7.503240    -6.647850    -5.722410    -4.756270   -3.782370   -2.838300   -1.976490   -1.247180   -0.688826  -0.317679  -0.116821 -0.004596 -2.213890e-05 -1.360040e-06
  -378.0         X  1.676620e-06  1.623830e-06  1.572700e-06  1.523190e-06  1.475230e-06     23.797100     22.606200     21.511100    20.503400    19.571200    18.705000    17.896800    17.140100    16.429400    15.760200    15.128400    14.530900    13.964500    13.426900    12.915800   -11.567900   -11.335300   -11.220200   -11.033100   -10.780400   -10.470500   -10.081400    -9.600790    -9.027810    -8.349460    -7.574030    -6.710400    -5.776090    -4.800740   -3.817630   -2.864680   -1.994830   -1.258730   -0.695205  -0.320624  -0.117907 -0.004639 -2.234680e-05 -1.372820e-06
  -376.0         X  1.692400e-06  1.639120e-06  1.587510e-06  1.537530e-06  1.489120e-06     24.021700     22.819300     21.713700    20.696300    19.755200    18.880700    18.064700    17.300800    16.583300    15.907700    15.270000    14.666700    14.095000    13.552300    13.036400   -11.678600   -11.443600   -11.327400   -11.138400   -10.883300   -10.570400   -10.177400    -9.692110    -9.113540    -8.428590    -7.645640    -6.773670    -5.830390    -4.845730   -3.853300   -2.891370   -2.013370   -1.270410   -0.701656  -0.323603  -0.119004 -0.004683 -2.255710e-05 -1.385750e-06
  -374.0         X  1.708370e-06  1.654580e-06  1.602490e-06  1.552030e-06  1.503170e-06     24.249000     23.035000     21.918600    20.891400    19.941200    19.058300    18.234600    17.463300    16.739000    16.057000    15.413200    14.804200    14.227100    13.679200    13.158400   -11.790500   -11.553200   -11.435900   -11.245000   -10.987400   -10.671400   -10.274500    -9.784510    -9.200270    -8.508640    -7.718080    -6.837670    -5.885310    -4.891230   -3.889360   -2.918350   -2.032110   -1.282230   -0.708180  -0.326615  -0.120114 -0.004727 -2.276980e-05 -1.398820e-06
  -372.0         X  1.724520e-06  1.670220e-06  1.617630e-06  1.566700e-06  1.517380e-06     24.478900     23.253100     22.125900    21.088800    20.129400    19.238000    18.406300    17.627700    16.896500    16.207900    15.558000    14.943200    14.360600    13.807500    13.281800   -11.903700   -11.664100   -11.545600   -11.352900   -11.092700   -10.773600   -10.372800    -9.877990    -9.288020    -8.589620    -7.791360    -6.902410    -5.940860    -4.937250   -3.925840   -2.945640   -2.051070   -1.294170   -0.714777  -0.329661  -0.121237 -0.004771 -2.298500e-05 -1.412040e-06
  -370.0         X  1.740850e-06  1.686040e-06  1.632960e-06  1.581540e-06  1.531750e-06     24.711500     23.473700     22.335600    21.288400    20.319800    19.419800    18.580100    17.794000    17.055700    16.360600    15.704400    15.083800    14.495600    13.937300    13.406500   -12.018300   -11.776300   -11.656600   -11.462000   -11.199300   -10.877000   -10.472300    -9.972560    -9.376790    -8.671550    -7.865490    -6.967900    -5.997050    -4.983800   -3.962730   -2.973240   -2.070250   -1.306260   -0.721448  -0.332741  -0.122372 -0.004816 -2.320260e-05 -1.425420e-06
  -368.0         X  1.757370e-06  1.702040e-06  1.648450e-06  1.596550e-06  1.546290e-06     24.946700     23.696900     22.547700    21.490300    20.512300    19.603600    18.755800    17.962200    17.216800    16.515000    15.852500    15.226000    14.632200    14.068500    13.532700   -12.134300   -11.889900   -11.769000   -11.572400   -11.307100   -10.981600   -10.572900   -10.068200    -9.466600    -8.754430    -7.940480    -7.034150    -6.053890    -5.030880   -4.000040   -3.001160   -2.089640   -1.318470   -0.728195  -0.335856  -0.123521 -0.004862 -2.342270e-05 -1.438940e-06
  -366.0         X  1.774080e-06  1.718230e-06  1.664130e-06  1.611740e-06  1.560990e-06     25.184700     23.922600     22.762200    21.694600    20.707100    19.789600    18.933600    18.132300    17.379800    16.671200    16.002400    15.369800    14.770300    14.201300    13.660400   -12.251600   -12.004800   -11.882700   -11.684200   -11.416200   -11.087500   -10.674700   -10.165100    -9.557470    -8.838280    -8.016340    -7.101160    -6.111380    -5.078500   -4.037780   -3.029390   -2.109250   -1.330830   -0.735017  -0.339006  -0.124682 -0.004908 -2.364530e-05 -1.452630e-06
  -364.0         X  1.790990e-06  1.734600e-06  1.679990e-06  1.627090e-06  1.575860e-06     25.425500     24.151000     22.979300    21.901200    20.904100    19.977700    19.113400    18.304300    17.544600    16.829100    16.153900    15.515200    14.910000    14.335500    13.789400   -12.370300   -12.121000   -11.997700   -11.797200   -11.526600   -11.194600   -10.777700   -10.263000    -9.649400    -8.923120    -8.093090    -7.168950    -6.169540    -5.126660   -4.075950   -3.057940   -2.129080   -1.343320   -0.741917  -0.342192  -0.125857 -0.004954 -2.387050e-05 -1.466470e-06
  -362.0         X  1.808090e-06  1.751160e-06  1.696030e-06  1.642630e-06  1.590910e-06     25.669100     24.382100     23.198800    22.110200    21.103400    20.168000    19.295300    18.478400    17.711200    16.988900    16.307200    15.662400    15.051300    14.471300    13.920000   -12.490500   -12.238700   -12.114100   -11.911600   -11.638200   -11.303000   -10.882000   -10.362100    -9.742420    -9.008940    -8.170740    -7.237530    -6.228370    -5.175380   -4.114560   -3.086810   -2.149130   -1.355960   -0.748895  -0.345415  -0.127044 -0.005001 -2.409830e-05 -1.480470e-06
  -360.0         X  1.825380e-06  1.767910e-06  1.712250e-06  1.658340e-06  1.606130e-06     25.915500     24.615800     23.421000    22.321700    21.305000    20.360400    19.479300    18.654400    17.879900    17.150600    16.462200    15.811200    15.194300    14.608700    14.052100   -12.612000   -12.357700   -12.231900   -12.027400   -11.751300   -11.412600   -10.987400   -10.462400    -9.836530    -9.095780    -8.249290    -7.306900    -6.287880    -5.224660   -4.153600   -3.116020   -2.169420   -1.368740   -0.755951  -0.348673  -0.128246 -0.005049 -2.432870e-05 -1.494630e-06
  -358.0         X  1.842880e-06  1.784860e-06  1.728660e-06  1.674230e-06  1.621520e-06     26.164800     24.852300     23.645600    22.535600    21.508900    20.555100    19.665400    18.832500    18.050400    17.314000    16.619000    15.961700    15.338800    14.747600    14.185600   -12.735100   -12.478200   -12.351100   -12.144500   -11.865600   -11.523600   -11.094100   -10.563800    -9.931750    -9.183630    -8.328760    -7.377090    -6.348070    -5.274510   -4.193100   -3.145550   -2.189930   -1.381660   -0.763087  -0.351969  -0.129461 -0.005097 -2.456180e-05 -1.508960e-06
  -356.0         X  1.860580e-06  1.802000e-06  1.745260e-06  1.690310e-06  1.637090e-06     26.417000     25.091500     23.872900    22.751900    21.715200    20.752100    19.853600    19.012600    18.222900    17.479400    16.777700    16.114000    15.485100    14.888100    14.320700   -12.859600   -12.600100   -12.471700   -12.263100   -11.981400   -11.635900   -11.202100   -10.666500   -10.028100    -9.272520    -8.409160    -7.448090    -6.408970    -5.324930   -4.233040   -3.175420   -2.210680   -1.394730   -0.770305  -0.355302  -0.130690 -0.005146 -2.479760e-05 -1.523450e-06
  -354.0         X  1.878480e-06  1.819330e-06  1.762050e-06  1.706580e-06  1.652850e-06     26.672100     25.333500     24.102900    22.970800    21.923900    20.951300    20.044100    19.194800    18.397400    17.646700    16.938100    16.268000    15.633000    15.030300    14.457300   -12.985500   -12.723400   -12.593800   -12.383000   -12.098500   -11.749500   -11.311400   -10.770400   -10.125600    -9.362450    -8.490510    -7.519920    -6.470570    -5.375930   -4.273450   -3.205640   -2.231660   -1.407950   -0.777604  -0.358672  -0.131933 -0.005195 -2.503610e-05 -1.538110e-06
  -352.0         X  1.896590e-06  1.836870e-06  1.779040e-06  1.723030e-06  1.668780e-06     26.930300     25.578300     24.335500    23.192300    22.135000    21.152900    20.236700    19.379200    18.573900    17.815800    17.100400    16.423700    15.782600    15.174000    14.595600   -13.113000   -12.848300   -12.717300   -12.504400   -12.217000   -11.864500   -11.421900   -10.875500   -10.224200    -9.453450    -8.572810    -7.592590    -6.532880    -5.427520   -4.314320   -3.236200   -2.252880   -1.421320   -0.784985  -0.362081  -0.133190 -0.005245 -2.527740e-05 -1.552940e-06
  -350.0         X  1.914910e-06  1.854620e-06  1.796220e-06  1.739670e-06  1.684900e-06     27.191500     25.826000     24.570900    23.416300    22.348600    21.356700    20.431600    19.565600    18.752500    17.987000    17.264500    16.581300    15.933900    15.319400    14.735300   -13.242100   -12.974600   -12.842300   -12.627300   -12.336900   -11.980900   -11.533800   -10.981900   -10.324000    -9.545520    -8.656070    -7.666100    -6.595930    -5.479710   -4.355650   -3.267100   -2.274340   -1.434840   -0.792450  -0.365529  -0.134461 -0.005295 -2.552140e-05 -1.567940e-06
  -348.0         X  1.933440e-06  1.872560e-06  1.813610e-06  1.756500e-06  1.701200e-06     27.455700     26.076600     24.808900    23.642900    22.564600    21.563000    20.628700    19.754200    18.933100    18.160100    17.430600    16.740700    16.086900    15.466500    14.876700   -13.372600   -13.102400   -12.968800   -12.751600   -12.458300   -12.098600   -11.647000   -11.089500   -10.425000    -9.638680    -8.740320    -7.740480    -6.659700    -5.532500   -4.397460   -3.298360   -2.296050   -1.448510   -0.800000  -0.369016  -0.135747 -0.005346 -2.576830e-05 -1.583110e-06
  -346.0         X  1.952180e-06  1.890720e-06  1.831190e-06  1.773530e-06  1.717700e-06     27.723000     26.330100     25.049800    23.872200    22.783200    21.771600    20.828100    19.945000    19.115800    18.335200    17.598600    16.901900    16.241800    15.615300    15.019800   -13.504800   -13.231800   -13.096900   -12.877400   -12.581100   -12.217800   -11.761600   -11.198400   -10.527200    -9.732940    -8.825560    -7.815730    -6.724220    -5.585900   -4.439760   -3.329980   -2.318000   -1.462340   -0.807636  -0.372542  -0.137047 -0.005398 -2.601810e-05 -1.598460e-06
  -344.0         X  1.971140e-06  1.909080e-06  1.848980e-06  1.790760e-06  1.734380e-06     27.993500     26.586600     25.293500    24.104100    23.004300    21.982700    21.029800    20.138000    19.300700    18.512400    17.768500    17.064900    16.398400    15.765700    15.164400   -13.638500   -13.362800   -13.226400   -13.004700   -12.705400   -12.338400   -11.877500   -11.308600   -10.630600    -9.828310    -8.911800    -7.891860    -6.789480    -5.639920   -4.482530   -3.361960   -2.340200   -1.476320   -0.815358  -0.376109  -0.138363 -0.005450 -2.627070e-05 -1.613980e-06
  -342.0         X  1.990320e-06  1.927660e-06  1.866970e-06  1.808190e-06  1.751260e-06     28.267200     26.846100     25.540100    24.338800    23.228000    22.196200    21.233900    20.333200    19.487600    18.691600    17.940300    17.229900    16.556800    15.918000    15.310800   -13.773900   -13.495300   -13.357600   -13.133600   -12.831200   -12.460400   -11.994900   -11.420200   -10.735200    -9.924820    -8.999060    -7.968880    -6.855510    -5.694560   -4.525810   -3.394310   -2.362660   -1.490470   -0.823169  -0.379716  -0.139693 -0.005503 -2.652630e-05 -1.629690e-06
  -340.0         X  2.009730e-06  1.946450e-06  1.885170e-06  1.825820e-06  1.768330e-06     28.544100     27.108700     25.789500    24.576200    23.454300    22.412200    21.440300    20.530700    19.676800    18.872800    18.114200    17.396800    16.717000    16.071900    15.458800   -13.910900   -13.629400   -13.490300   -13.264000   -12.958500   -12.583900   -12.113600   -11.533000   -10.841100   -10.022500    -9.087350    -8.046810    -6.922310    -5.749840   -4.569570   -3.427020   -2.385370   -1.504770   -0.831067  -0.383365  -0.141039 -0.005556 -2.678480e-05 -1.645580e-06
