Name:A X_Dim:600 Y_Dim:300 Conductance:100.0

### Channel Times ###
      Start      End
0   -1.9505  -1.9495
1   -1.8505  -1.8495
2   -1.7505  -1.7495
3   -1.6505  -1.6495
4   -1.5505  -1.5495
5   -1.4500  -1.4490
6   -1.3505  -1.3495
7   -1.2505  -1.2495
8   -1.1505  -1.1495
9   -1.0505  -1.0495
10  -0.9505  -0.9495
11  -0.8505  -0.8495
12  -0.7505  -0.7495
13  -0.6505  -0.6495
14  -0.5505  -0.5495
15  -0.4505  -0.4495
16  -0.3505  -0.3495
17  -0.2505  -0.2495
18  -0.1505  -0.1495
19  -0.0505  -0.0495
20   0.0250   0.0260
21   0.0545   0.0555
22   0.0695   0.0705
23   0.0945   0.0955
24   0.1295   0.1305
25   0.1745   0.1755
26   0.2345   0.2355
27   0.3145   0.3155
28   0.4195   0.4205
29   0.5595   0.5605
30   0.7445   0.7455
31   0.9895   0.9905
32   1.3145   1.3155
33   1.7445   1.7455
34   2.3145   2.3155
35   3.0745   3.0755
36   4.0845   4.0855
37   5.4245   5.4255
38   7.2045   7.2055
39   9.5695   9.5705
40  12.6595  12.6605
41  22.7295  22.7305
42  39.3945  39.3955
43  48.1145  48.1155

### Data ###
 Station Component         0         1         2         3         4             5             6             7             8            9           10           11           12           13           14           15           16           17           18           19           20           21           22           23           24           25           26           27           28           29           30           31           32           33          34          35          36          37          38          39         40        41        42        43
  -400.0         X  0.000147  0.000144  0.000141  0.000138  0.000135     28.397300     27.232100     26.155200     25.158900    24.232300    23.366600    22.554500    21.789900    21.067800    20.384000    19.734900    19.117400    18.528800    17.966900    17.429500   -11.667400   -11.452400   -11.346100   -11.173100   -10.939600   -10.653100   -10.293200    -9.848700    -9.318370    -8.689900    -7.970350    -7.166810    -6.293580    -5.375080   -4.437530   -3.509350   -2.631800   -1.844970   -1.183580   -0.674520  -0.331529 -0.034989 -0.000887 -0.000130
  -398.0         X  0.000148  0.000145  0.000142  0.000139  0.000136     28.641600     27.465900     26.379200     25.374000    24.439100    23.565700    22.746300    21.974900    21.246500    20.556600    19.901800    19.278900    18.685100    18.118300    17.576200   -11.771300   -11.554200   -11.446900   -11.272300   -11.036600   -10.747500   -10.384300    -9.935600    -9.400350    -8.766090    -8.039930    -7.229050    -6.347910    -5.421170   -4.475280   -3.538970   -2.653830   -1.860280   -1.193330   -0.680040  -0.334230 -0.035273 -0.000894 -0.000131
  -396.0         X  0.000149  0.000146  0.000143  0.000140  0.000137     28.888500     27.702100     26.605600     25.591300    24.648000    23.766800    22.940100    22.161900    21.426900    20.731000    20.070400    19.442000    18.843000    18.271200    17.724400   -11.876300   -11.657200   -11.548900   -11.372700   -11.134700   -10.842900   -10.476300   -10.023400    -9.483230    -8.843110    -8.110260    -7.291960    -6.402820    -5.467740   -4.513430   -3.568890   -2.676070   -1.875750   -1.203170   -0.685615  -0.336957 -0.035559 -0.000901 -0.000132
  -394.0         X  0.000151  0.000147  0.000144  0.000141  0.000138     29.138000     27.940900     26.834400     25.810900    24.859200    23.970000    23.135900    22.350700    21.609300    20.907200    20.240700    19.606800    19.002600    18.425700    17.874100   -11.982400   -11.761300   -11.651900   -11.474100   -11.233900   -10.939300   -10.569300   -10.112300    -9.567020    -8.920950    -8.181350    -7.355540    -6.458310    -5.514800   -4.551980   -3.599110   -2.698540   -1.891360   -1.213120   -0.691243  -0.339710 -0.035849 -0.000909 -0.000133
  -392.0         X  0.000152  0.000149  0.000145  0.000142  0.000139     29.390200     28.182100     27.065600     26.032800    25.072500    24.175300    23.333800    22.541600    21.793500    21.085200    20.412800    19.773300    19.163700    18.581800    18.025400   -12.089800   -11.866600   -11.756200   -11.576600   -11.334200   -11.036900   -10.663400   -10.202000    -9.651710    -8.999650    -8.253200    -7.419800    -6.514380    -5.562350   -4.590920   -3.629650   -2.721240   -1.907140   -1.223150   -0.696927  -0.342491 -0.036141 -0.000916 -0.000134
  -390.0         X  0.000153  0.000150  0.000147  0.000143  0.000140     29.645000     28.425900     27.299200     26.257100    25.288000    24.382800    23.533700    22.734400    21.979600    21.265000    20.586700    19.941400    19.326500    18.739500    18.178100   -12.198300   -11.973000   -11.861600   -11.680300   -11.435600   -11.135500   -10.758500   -10.292800    -9.737340    -9.079200    -8.325830    -7.484760    -6.571060    -5.610400   -4.630270   -3.660500   -2.744170   -1.923070   -1.233290   -0.702667  -0.345298 -0.036436 -0.000924 -0.000135
  -388.0         X  0.000154  0.000151  0.000148  0.000145  0.000141     29.902600     28.672200     27.535300     26.483600    25.505800    24.592400    23.735700    22.929200    22.167700    21.446700    20.762300    20.111400    19.491000    18.898800    18.332500   -12.308100   -12.080600   -11.968100   -11.785200   -11.538200   -11.235200   -10.854600   -10.384600    -9.823900    -9.159610    -8.399240    -7.550400    -6.628330    -5.658960   -4.670030   -3.691660   -2.767330   -1.939160   -1.243530   -0.708463  -0.348133 -0.036734 -0.000931 -0.000137
  -386.0         X  0.000156  0.000152  0.000149  0.000146  0.000143     30.162800     28.921200     27.773800     26.712600    25.725900    24.804200    23.939700    23.126000    22.357700    21.630200    20.939800    20.283000    19.657200    19.059700    18.488400   -12.419000   -12.189400   -12.075900   -11.891200   -11.641800   -11.336000   -10.951800   -10.477400    -9.911410    -9.240910    -8.473450    -7.616760    -6.686220    -5.708020   -4.710210   -3.723150   -2.790720   -1.955410   -1.253870   -0.714316  -0.350995 -0.037034 -0.000939 -0.000138
  -384.0         X  0.000157  0.000153  0.000150  0.000147  0.000144     30.425900     29.172800     28.014900     26.944000    25.948300    25.018300    24.146000    23.324900    22.549700    21.815700    21.119100    20.456500    19.825000    19.222300    18.645900   -12.531200   -12.299400   -12.184800   -11.998400   -11.746700   -11.437900   -11.050100   -10.571200    -9.999880    -9.323090    -8.548470    -7.683820    -6.744720    -5.757610   -4.750800   -3.754950   -2.814350   -1.971830   -1.264310   -0.720225  -0.353886 -0.037338 -0.000947 -0.000139
  -382.0         X  0.000158  0.000155  0.000151  0.000148  0.000145     30.691700     29.427100     28.258500     27.177800    26.173000    25.234500    24.354300    23.525900    22.743700    22.003100    21.300200    20.631700    19.994600    19.386500    18.805100   -12.644700   -12.410700   -12.295000   -12.106800   -11.852600   -11.541000   -11.149500   -10.666000   -10.089300    -9.406160    -8.624300    -7.751610    -6.803850    -5.807710   -4.791810   -3.787090   -2.838220   -1.988400   -1.274860   -0.726193  -0.356804 -0.037644 -0.000954 -0.000140
  -380.0         X  0.000159  0.000156  0.000153  0.000149  0.000146     30.960300     29.684000     28.504700     27.414100    26.400100    25.453100    24.564900    23.728900    22.939600    22.192400    21.483200    20.808700    20.166000    19.552400    18.965900   -12.759500   -12.523200   -12.406400   -12.216400   -11.959800   -11.645200   -11.250000   -10.761900   -10.179800    -9.490150    -8.700950    -7.820130    -6.863600    -5.858350   -4.833250   -3.819560   -2.862330   -2.005150   -1.285510   -0.732220  -0.359751 -0.037954 -0.000962 -0.000141
  -378.0         X  0.000161  0.000157  0.000154  0.000151  0.000147     31.231800     29.943700     28.753500     27.652800    26.629600    25.673900    24.777600    23.934100    23.137700    22.383700    21.668100    20.987600    20.339100    19.720100    19.128300   -12.875500   -12.637000   -12.519000   -12.327200   -12.068200   -11.750500   -11.351600   -10.858800   -10.271200    -9.575060    -8.778440    -7.889390    -6.924000    -5.909520   -4.875120   -3.852350   -2.886690   -2.022060   -1.296270   -0.738305  -0.362726 -0.038266 -0.000970 -0.000142
  -376.0         X  0.000162  0.000159  0.000155  0.000152  0.000148     31.506200     30.206100     29.004900     27.894100    26.861400    25.897000    24.992500    24.141300    23.337700    22.577000    21.855000    21.168300    20.514000    19.889400    19.292400   -12.992800   -12.752000   -12.632900   -12.439200   -12.177800   -11.857100   -11.454300   -10.956900   -10.363600    -9.660900    -8.856770    -7.959400    -6.985040    -5.961230   -4.917430   -3.885490   -2.911290   -2.039140   -1.307130   -0.744450  -0.365730 -0.038581 -0.000978 -0.000143
  -374.0         X  0.000163  0.000160  0.000156  0.000153  0.000150     31.783600     30.471300     29.258900     28.137900    27.095800    26.122500    25.209800    24.350800    23.539900    22.772200    22.043700    21.350900    20.690700    20.060500    19.458100   -13.111500   -12.868300   -12.748100   -12.552600   -12.288600   -11.964800   -11.558200   -11.056000   -10.457100    -9.747680    -8.935950    -8.030160    -7.046730    -6.013490   -4.960180   -3.918970   -2.936150   -2.056390   -1.318100   -0.750655  -0.368764 -0.038900 -0.000986 -0.000145
  -372.0         X  0.000165  0.000161  0.000158  0.000154  0.000151     32.063900     30.739400     29.515700     28.384300    27.332500    26.350300    25.429200    24.562400    23.744100    22.969500    22.234400    21.535300    20.869200    20.233400    19.625600   -13.231500   -12.986000   -12.864600   -12.667200   -12.400600   -12.073700   -11.663200   -11.156200   -10.551500    -9.835410    -9.016000    -8.101680    -7.109080    -6.066300   -5.003380   -3.952790   -2.961250   -2.073820   -1.329170   -0.756920  -0.371827 -0.039221 -0.000994 -0.000146
  -370.0         X  0.000166  0.000163  0.000159  0.000156  0.000152     32.347100     31.010200     29.775200     28.633300    27.571800    26.580500    25.651000    24.776300    23.950500    23.168900    22.427100    21.721700    21.049600    20.408000    19.794800   -13.352800   -13.104900   -12.982400   -12.783000   -12.513900   -12.183900   -11.769400   -11.257500   -10.647100    -9.924110    -9.096920    -8.173990    -7.172100    -6.119670   -5.047030   -3.986960   -2.986610   -2.091420   -1.340360   -0.763247  -0.374919 -0.039546 -0.001002 -0.000147
  -368.0         X  0.000168  0.000164  0.000160  0.000157  0.000153     32.633400     31.284000     30.037400     28.884900    27.813600    26.813100    25.875100    24.992300    24.159100    23.370300    22.621800    21.910000    21.231800    20.584500    19.965700   -13.475500   -13.225200   -13.101500   -12.900200   -12.628500   -12.295300   -11.876800   -11.359900   -10.743700   -10.013800    -9.178730    -8.247070    -7.235800    -6.173600   -5.091130   -4.021490   -3.012230   -2.109190   -1.351660   -0.769636  -0.378042 -0.039874 -0.001011 -0.000148
  -366.0         X  0.000169  0.000165  0.000162  0.000158  0.000155     32.922800     31.560700     30.302400     29.139100    28.057900    27.048200    26.101500    25.210700    24.369800    23.573800    22.818500    22.100200    21.415900    20.762700    20.138400   -13.599600   -13.346900   -13.221900   -13.018700   -12.744400   -12.407900   -11.985400   -11.463500   -10.841300   -10.104400    -9.261430    -8.320950    -7.300180    -6.228110   -5.135700   -4.056370   -3.038110   -2.127150   -1.363070   -0.776087  -0.381195 -0.040205 -0.001019 -0.000149
  -364.0         X  0.000170  0.000167  0.000163  0.000159  0.000156     33.215300     31.840300     30.570300     29.396100    28.304800    27.285800    26.330300    25.431300    24.582600    23.779400    23.017200    22.292400    21.601900    20.942800    20.312800   -13.725100   -13.470000   -13.343800   -13.138600   -12.861600   -12.521800   -12.095200   -11.568300   -10.940100   -10.196100    -9.345030    -8.395630    -7.365250    -6.283190   -5.180730   -4.091610   -3.064250   -2.145280   -1.374590   -0.782602  -0.384378 -0.040539 -0.001028 -0.000151
  -362.0         X  0.000172  0.000168  0.000164  0.000161  0.000157     33.510900     32.123000     30.841000     29.655800    28.554300    27.525800    26.561500    25.654200    24.797800    23.987100    23.218000    22.486600    21.789800    21.124800    20.489100   -13.852100   -13.594400   -13.467000   -13.259800   -12.980100   -12.637000   -12.206200   -11.674200   -11.039900   -10.288800    -9.429560    -8.471120    -7.431020    -6.338860   -5.226230   -4.127210   -3.090660   -2.163600   -1.386220   -0.789179  -0.387593 -0.040876 -0.001036 -0.000152
  -360.0         X  0.000173  0.000169  0.000166  0.000162  0.000159     33.809700     32.408600     31.114500     29.918200    28.806500    27.768400    26.795100    25.879400    25.015100    24.197000    23.420900    22.682800    21.979700    21.308600    20.667200   -13.980500   -13.720300   -13.591600   -13.382400   -13.099900   -12.753500   -12.318500   -11.781300   -11.140900   -10.382500    -9.515010    -8.547430    -7.497500    -6.395120   -5.272210   -4.163180   -3.117330   -2.182090   -1.397970   -0.795821  -0.390838 -0.041217 -0.001045 -0.000153
  -358.0         X  0.000175  0.000171  0.000167  0.000163  0.000160     34.111600     32.697300     31.391000     30.183400    29.061300    28.013500    27.031200    26.107000    25.234700    24.409100    23.625800    22.881000    22.171500    21.494300    20.847000   -14.110300   -13.847500   -13.717600   -13.506300   -13.221100   -12.871300   -12.432000   -11.889600   -11.243000   -10.477200    -9.601400    -8.624570    -7.564690    -6.451980   -5.318670   -4.199520   -3.144280   -2.200780   -1.409840   -0.802528  -0.394115 -0.041561 -0.001053 -0.000154
  -356.0         X  0.000176  0.000172  0.000168  0.000165  0.000161     34.416800     32.989000     31.670400     30.451500    29.318800    28.261200    27.269800    26.337000    25.456600    24.623400    23.832900    23.081300    22.365300    21.681900    21.028800   -14.241600   -13.976300   -13.845100   -13.631700   -13.343600   -12.990400   -12.546800   -11.999200   -11.346200   -10.573000    -9.688740    -8.702550    -7.632600    -6.509440   -5.365620   -4.236230   -3.171500   -2.219640   -1.421820   -0.809300  -0.397423 -0.041908 -0.001062 -0.000156
  -354.0         X  0.000178  0.000174  0.000170  0.000166  0.000163     34.725300     33.283900     31.952700     30.722300    29.579000    28.511500    27.510800    26.569400    25.680900    24.840000    24.042200    23.283700    22.561100    21.871500    21.212400   -14.374400   -14.106500   -13.974000   -13.758500   -13.467600   -13.110900   -12.663000   -12.109900   -11.450600   -10.669900    -9.777040    -8.781380    -7.701250    -6.567510   -5.413060   -4.273320   -3.198990   -2.238700   -1.433920   -0.816138  -0.400764 -0.042258 -0.001071 -0.000157
  -352.0         X  0.000179  0.000175  0.000171  0.000168  0.000164     35.037100     33.582000     32.238100     30.996100    29.841900    28.764500    27.754400    26.804200    25.907400    25.058800    24.253600    23.488100    22.758900    22.063000    21.397900   -14.508800   -14.238100   -14.104300   -13.886700   -13.593000   -13.232700   -12.780400   -12.221900   -11.556100   -10.767800    -9.866310    -8.861070    -7.770640    -6.626200   -5.461000   -4.310800   -3.226770   -2.257950   -1.446140   -0.823043  -0.404136 -0.042612 -0.001080 -0.000158
  -350.0         X  0.000181  0.000177  0.000173  0.000169  0.000165     35.352300     33.883200     32.526600     31.272700    30.107700    29.020100    28.000600    27.041500    26.136400    25.279800    24.467200    23.694700    22.958700    22.256500    21.585300   -14.644700   -14.371300   -14.236200   -14.016400   -13.719800   -13.355900   -12.899200   -12.335200   -11.662800   -10.866800    -9.956570    -8.941630    -7.840770    -6.685510   -5.509440   -4.348660   -3.254820   -2.277390   -1.458480   -0.830015  -0.407542 -0.042969 -0.001089 -0.000160
  -348.0         X  0.000182  0.000178  0.000174  0.000170  0.000167     35.670800     34.187600     32.818000     31.552300    30.376200    29.278400    28.249300    27.281200    26.367700    25.503200    24.683100    23.903400    23.160600    22.451900    21.774600   -14.782100   -14.506000   -14.369600   -14.147600   -13.848000   -13.480600   -13.019300   -12.449700   -11.770700   -10.966900   -10.047800    -9.023070    -7.911660    -6.745460   -5.558380   -4.386910   -3.283160   -2.297020   -1.470950   -0.837054  -0.410980 -0.043330 -0.001098 -0.000161
  -346.0         X  0.000184  0.000180  0.000176  0.000172  0.000168     35.992800     34.495300     33.112700     31.834800    30.647600    29.539400    28.500600    27.523500    26.601400    25.728800    24.901100    24.114200    23.364600    22.649400    21.965900   -14.921100   -14.642300   -14.504400   -14.280300   -13.977700   -13.606600   -13.140700   -12.565500   -11.879900   -11.068200   -10.140100    -9.105400    -7.983320    -6.806040   -5.607840   -4.425560   -3.311790   -2.316850   -1.483530   -0.844162  -0.414451 -0.043694 -0.001107 -0.000162
  -344.0         X  0.000185  0.000181  0.000177  0.000173  0.000169     36.318300     34.806400     33.410400     32.120400    30.921900    29.803100    28.754600    27.768300    26.837600    25.956900    25.121400    24.327200    23.570800    22.848900    22.159100   -15.061700   -14.780100   -14.640900   -14.414500   -14.108900   -13.734100   -13.263600   -12.682600   -11.990200   -11.170500   -10.233400    -9.188620    -8.055750    -6.867270   -5.657820   -4.464600   -3.340700   -2.336880   -1.496240   -0.851338  -0.417955 -0.044061 -0.001117 -0.000164
  -342.0         X  0.000187  0.000183  0.000179  0.000175  0.000171     36.647200     35.120700     33.711300     32.409000    31.199000    30.069700    29.011200    28.015600    27.076200    26.187300    25.344100    24.542500    23.779000    23.050500    22.354300   -15.203900   -14.919500   -14.778900   -14.550200   -14.241500   -13.863000   -13.387800   -12.801100   -12.101800   -11.274000   -10.327700    -9.272760    -8.128960    -6.929150   -5.708320   -4.504050   -3.369910   -2.357110   -1.509070   -0.858584  -0.421493 -0.044432 -0.001126 -0.000165
  -340.0         X  0.000188  0.000184  0.000180  0.000176  0.000172     36.979700     35.438400     34.015500     32.700600    31.479100    30.339000    29.270600    28.265600    27.317300    26.420100    25.569000    24.759900    23.989400    23.254100    22.551500   -15.347800   -15.060500   -14.918500   -14.687500   -14.375700   -13.993400   -13.513400   -12.920900   -12.214600   -11.378700   -10.423000    -9.357820    -8.202970    -6.991690   -5.759350   -4.543900   -3.399420   -2.377530   -1.522020   -0.865900  -0.425065 -0.044806 -0.001136 -0.000166
  -338.0         X  0.000190  0.000186  0.000182  0.000178  0.000174     37.315800     35.759500     34.322800     32.995300    31.762200    30.611200    29.532600    28.518100    27.560900    26.655300    25.796200    24.979700    24.201900    23.459900    22.750800   -15.493300   -15.203100   -15.059600   -14.826400   -14.511400   -14.125300   -13.640500   -13.042000   -12.328800   -11.484500   -10.519400    -9.443810    -8.277770    -7.054890   -5.810910   -4.584170   -3.429220   -2.398160   -1.535110   -0.873287  -0.428671 -0.045184 -0.001145 -0.000168
