Name:A X_Dim:600 Y_Dim:30 Conductance:100.0

### Channel Times ###
      Start      End
0   -1.9505  -1.9495
1   -1.8505  -1.8495
2   -1.7505  -1.7495
3   -1.6505  -1.6495
4   -1.5505  -1.5495
5   -1.4500  -1.4490
6   -1.3505  -1.3495
7   -1.2505  -1.2495
8   -1.1505  -1.1495
9   -1.0505  -1.0495
10  -0.9505  -0.9495
11  -0.8505  -0.8495
12  -0.7505  -0.7495
13  -0.6505  -0.6495
14  -0.5505  -0.5495
15  -0.4505  -0.4495
16  -0.3505  -0.3495
17  -0.2505  -0.2495
18  -0.1505  -0.1495
19  -0.0505  -0.0495
20   0.0250   0.0260
21   0.0545   0.0555
22   0.0695   0.0705
23   0.0945   0.0955
24   0.1295   0.1305
25   0.1745   0.1755
26   0.2345   0.2355
27   0.3145   0.3155
28   0.4195   0.4205
29   0.5595   0.5605
30   0.7445   0.7455
31   0.9895   0.9905
32   1.3145   1.3155
33   1.7445   1.7455
34   2.3145   2.3155
35   3.0745   3.0755
36   4.0845   4.0855
37   5.4245   5.4255
38   7.2045   7.2055
39   9.5695   9.5705
40  12.6595  12.6605
41  22.7295  22.7305
42  39.3945  39.3955
43  48.1145  48.1155

### Data ###
 Station Component             0             1             2             3             4            5            6            7            8            9           10           11          12          13          14          15          16          17          18          19           20           21           22           23           24           25           26           27           28           29          30          31          32          33         34        35            36            37            38            39            40            41            42            43
  -400.0         X  3.358380e-36  2.708140e-36  2.183790e-36  1.760970e-36  1.420010e-36     1.343730     1.036510     0.812826     0.643887     0.513168     0.410557     0.329283    0.264537    0.212760    0.171248    0.137908    0.111099    0.089525    0.072152    0.058158    -1.391140    -1.280930    -1.229660    -1.150390    -1.050640    -0.938331    -0.810886    -0.671514    -0.527926    -0.385932   -0.256947   -0.150840   -0.074734   -0.029582  -0.008668 -0.001688 -1.919060e-04 -1.072610e-05 -2.325960e-07 -1.432410e-09 -1.853590e-12 -7.187110e-22 -1.911630e-37 -1.353170e-45
  -398.0         X  3.396150e-36  2.738590e-36  2.208340e-36  1.780770e-36  1.435980e-36     1.358750     1.048090     0.821909     0.651082     0.518903     0.415145     0.332964    0.267494    0.215139    0.173163    0.139450    0.112342    0.090526    0.072959    0.058809    -1.406680    -1.295240    -1.243400    -1.163240    -1.062380    -0.948815    -0.819946    -0.679017    -0.533826    -0.390245   -0.259819   -0.152527   -0.075570   -0.029913  -0.008765 -0.001707 -1.940570e-04 -1.084650e-05 -2.352070e-07 -1.448490e-09 -1.874420e-12 -7.267960e-22 -1.933090e-37 -1.368310e-45
  -396.0         X  3.434460e-36  2.769480e-36  2.233260e-36  1.800850e-36  1.452170e-36     1.373980     1.059830     0.831121     0.658380     0.524720     0.419800     0.336697    0.270494    0.217552    0.175105    0.141015    0.113602    0.091542    0.073778    0.059469    -1.422450    -1.309760    -1.257330    -1.176280    -1.074280    -0.959448    -0.829136    -0.686628    -0.539809    -0.394620   -0.262732   -0.154237   -0.076418   -0.030249  -0.008864 -0.001726 -1.962390e-04 -1.096850e-05 -2.378550e-07 -1.464810e-09 -1.895550e-12 -7.349970e-22 -1.954850e-37 -1.383670e-45
  -394.0         X  3.473320e-36  2.800820e-36  2.258530e-36  1.821230e-36  1.468610e-36     1.389420     1.071750     0.840465     0.665783     0.530621     0.424521     0.340484    0.273536    0.219999    0.177075    0.142601    0.114881    0.092572    0.074609    0.060138    -1.438440    -1.324480    -1.271470    -1.189510    -1.086360    -0.970234    -0.838457    -0.694347    -0.545879    -0.399057   -0.265687   -0.155973   -0.077278   -0.030589  -0.008964 -0.001745 -1.984520e-04 -1.109230e-05 -2.405410e-07 -1.481370e-09 -1.916990e-12 -7.433170e-22 -1.976940e-37 -1.399250e-45
  -392.0         X  3.512760e-36  2.832620e-36  2.284170e-36  1.841910e-36  1.485280e-36     1.405090     1.083840     0.849943     0.673292     0.536606     0.429309     0.344325    0.276623    0.222481    0.179074    0.144211    0.116177    0.093617    0.075451    0.060817    -1.454660    -1.339420    -1.285810    -1.202920    -1.098610    -0.981174    -0.847912    -0.702177    -0.552035    -0.403559   -0.268685   -0.157733   -0.078150   -0.030935  -0.009065 -0.001765 -2.006980e-04 -1.121790e-05 -2.432660e-07 -1.498170e-09 -1.938740e-12 -7.517580e-22 -1.999340e-37 -1.415050e-45
  -390.0         X  3.552770e-36  2.864880e-36  2.310180e-36  1.862890e-36  1.502200e-36     1.420990     1.096100     0.859558     0.680908     0.542677     0.434167     0.348221    0.279753    0.225000    0.181101    0.145844    0.117493    0.094677    0.076305    0.061506    -1.471120    -1.354570    -1.300350    -1.216520    -1.111040    -0.992273    -0.857502    -0.710120    -0.558280    -0.408125   -0.271726   -0.159518   -0.079035   -0.031285  -0.009168 -0.001785 -2.029750e-04 -1.134530e-05 -2.460310e-07 -1.515200e-09 -1.960810e-12 -7.603230e-22 -2.022070e-37 -1.431090e-45
  -388.0         X  3.593360e-36  2.897620e-36  2.336580e-36  1.884170e-36  1.519360e-36     1.437110     1.108530     0.869311     0.688635     0.548835     0.439095     0.352174    0.282929    0.227554    0.183157    0.147500    0.118827    0.095753    0.077172    0.062205    -1.487810    -1.369930    -1.315100    -1.230330    -1.123640    -1.003530    -0.867232    -0.718178    -0.564616    -0.412757   -0.274810   -0.161330   -0.079933   -0.031641  -0.009272 -0.001805 -2.052860e-04 -1.147450e-05 -2.488360e-07 -1.532490e-09 -1.983190e-12 -7.690130e-22 -2.045140e-37 -1.447370e-45
  -386.0         X  3.634560e-36  2.930830e-36  2.363370e-36  1.905770e-36  1.536780e-36     1.453470     1.121150     0.879206     0.696474     0.555083     0.444094     0.356184    0.286151    0.230146    0.185244    0.149180    0.120181    0.096844    0.078052    0.062914    -1.504740    -1.385530    -1.330070    -1.244330    -1.136430    -1.014950    -0.877102    -0.726352    -0.571043    -0.417456   -0.277939   -0.163167   -0.080844   -0.032001  -0.009378 -0.001826 -2.076300e-04 -1.160560e-05 -2.516820e-07 -1.550030e-09 -2.005910e-12 -7.778300e-22 -2.068550e-37 -1.463880e-45
  -384.0         X  3.676360e-36  2.964540e-36  2.390550e-36  1.927690e-36  1.554450e-36     1.470060     1.133950     0.889244     0.704426     0.561422     0.449166     0.360253    0.289420    0.232775    0.187360    0.150885    0.121555    0.097950    0.078944    0.063633    -1.521920    -1.401340    -1.345260    -1.258540    -1.149400    -1.026540    -0.887115    -0.734645    -0.577563    -0.422223   -0.281114   -0.165032   -0.081768   -0.032367  -0.009485 -0.001847 -2.100090e-04 -1.173870e-05 -2.545690e-07 -1.567830e-09 -2.028960e-12 -7.867780e-22 -2.092300e-37 -1.480640e-45
  -382.0         X  3.718780e-36  2.998750e-36  2.418130e-36  1.949930e-36  1.572390e-36     1.486900     1.146940     0.899428     0.712495     0.567853     0.454311     0.364380    0.292736    0.235443    0.189507    0.152614    0.122948    0.099074    0.079849    0.064363    -1.539350    -1.417390    -1.360660    -1.272950    -1.162570    -1.038290    -0.897275    -0.743058    -0.584178    -0.427060   -0.284335   -0.166923   -0.082706   -0.032738  -0.009594 -0.001868 -2.124220e-04 -1.187360e-05 -2.574980e-07 -1.585880e-09 -2.052340e-12 -7.958570e-22 -2.116400e-37 -1.497650e-45
  -380.0         X  3.761830e-36  3.033460e-36  2.446120e-36  1.972510e-36  1.590590e-36     1.503980     1.160110     0.909761     0.720681     0.574378     0.459532     0.368568    0.296101    0.238149    0.191686    0.154369    0.124362    0.100213    0.080768    0.065103    -1.557030    -1.433680    -1.376290    -1.287570    -1.175920    -1.050220    -0.907582    -0.751595    -0.590890    -0.431967   -0.287603   -0.168842   -0.083657   -0.033115  -0.009704 -0.001890 -2.148700e-04 -1.201060e-05 -2.604710e-07 -1.604210e-09 -2.076070e-12 -8.050710e-22 -2.140870e-37 -1.514900e-45
  -378.0         X  3.805520e-36  3.068690e-36  2.474530e-36  1.995410e-36  1.609060e-36     1.521310     1.173480     0.920245     0.728987     0.580998     0.464829     0.372817    0.299515    0.240896    0.193897    0.156150    0.125797    0.101369    0.081699    0.065854    -1.574980    -1.450200    -1.392150    -1.302410    -1.189470    -1.062320    -0.918041    -0.760256    -0.597700    -0.436946   -0.290919   -0.170789   -0.084622   -0.033497  -0.009816 -0.001912 -2.173550e-04 -1.214960e-05 -2.634880e-07 -1.622800e-09 -2.100160e-12 -8.144220e-22 -2.165690e-37 -1.532420e-45
  -376.0         X  3.849860e-36  3.104450e-36  2.503370e-36  2.018670e-36  1.627810e-36     1.538900     1.187040     0.930883     0.737414     0.587716     0.470204     0.377129    0.302979    0.243682    0.196140    0.157956    0.127252    0.102542    0.082645    0.066617    -1.593180    -1.466960    -1.408240    -1.317460    -1.203220    -1.074600    -0.928652    -0.769045    -0.604610    -0.441999   -0.294284   -0.172765   -0.085601   -0.033885  -0.009930 -0.001934 -2.198760e-04 -1.229060e-05 -2.665490e-07 -1.641670e-09 -2.124600e-12 -8.239120e-22 -2.190890e-37 -1.550200e-45
  -374.0         X  3.894870e-36  3.140750e-36  2.532630e-36  2.042270e-36  1.646840e-36     1.556740     1.200810     0.941678     0.745966     0.594532     0.475659     0.381504    0.306495    0.246510    0.198416    0.159790    0.128729    0.103733    0.083605    0.067390    -1.611660    -1.483970    -1.424570    -1.332740    -1.217170    -1.087060    -0.939421    -0.777963    -0.611622    -0.447125   -0.297698   -0.174770   -0.086595   -0.034279  -0.010045 -0.001956 -2.224350e-04 -1.243380e-05 -2.696550e-07 -1.660820e-09 -2.149400e-12 -8.335450e-22 -2.216470e-37 -1.568240e-45
  -372.0         X  3.940550e-36  3.177580e-36  2.562340e-36  2.066220e-36  1.666160e-36     1.574850     1.214780     0.952632     0.754645     0.601449     0.481193     0.385943    0.310062    0.249379    0.200726    0.161650    0.130228    0.104941    0.084578    0.068175    -1.630410    -1.501230    -1.441140    -1.348240    -1.231330    -1.099710    -0.950348    -0.787012    -0.618737    -0.452328   -0.301162   -0.176805   -0.087604   -0.034678  -0.010162 -0.001979 -2.250310e-04 -1.257900e-05 -2.728080e-07 -1.680250e-09 -2.174570e-12 -8.433210e-22 -2.242430e-37 -1.586560e-45
  -370.0         X  3.986930e-36  3.214980e-36  2.592490e-36  2.090530e-36  1.685760e-36     1.593230     1.228950     0.963749     0.763451     0.608469     0.486810     0.390449    0.313682    0.252291    0.203070    0.163538    0.131749    0.106167    0.085567    0.068972    -1.649430    -1.518750    -1.457960    -1.363970    -1.245700    -1.112540    -0.961437    -0.796196    -0.625958    -0.457607   -0.304678   -0.178869   -0.088627   -0.035083  -0.010281 -0.002002 -2.276670e-04 -1.272640e-05 -2.760080e-07 -1.699980e-09 -2.200120e-12 -8.532450e-22 -2.268790e-37 -1.605150e-45
  -368.0         X  4.034000e-36  3.252940e-36  2.623100e-36  2.115220e-36  1.705670e-36     1.611880     1.243340     0.975030     0.772389     0.615593     0.492510     0.395021    0.317356    0.255246    0.205449    0.165454    0.133293    0.107411    0.086569    0.069780    -1.668740    -1.536530    -1.475030    -1.379940    -1.260280    -1.125560    -0.972690    -0.805516    -0.633286    -0.462965   -0.308246   -0.180965   -0.089666   -0.035495  -0.010402 -0.002026 -2.303410e-04 -1.287610e-05 -2.792550e-07 -1.720000e-09 -2.226060e-12 -8.633180e-22 -2.295540e-37 -1.624030e-45
  -366.0         X  4.081790e-36  3.291470e-36  2.654180e-36  2.140270e-36  1.725870e-36     1.630810     1.257940     0.986480     0.781459     0.622823     0.498295     0.399662    0.321084    0.258246    0.207864    0.167399    0.134860    0.108674    0.087587    0.070601    -1.688330    -1.554570    -1.492340    -1.396140    -1.275070    -1.138780    -0.984111    -0.814975    -0.640723    -0.468403   -0.311868   -0.183091   -0.090720   -0.035912  -0.010524 -0.002049 -2.330550e-04 -1.302790e-05 -2.825520e-07 -1.740320e-09 -2.252380e-12 -8.735440e-22 -2.322700e-37 -1.643190e-45
  -364.0         X  4.130300e-36  3.330590e-36  2.685720e-36  2.165710e-36  1.746390e-36     1.650020     1.272760     0.998100     0.790666     0.630161     0.504167     0.404372    0.324869    0.261290    0.210314    0.169372    0.136450    0.109955    0.088620    0.071434    -1.708220    -1.572880    -1.509920    -1.412580    -1.290090    -1.152190    -0.995703    -0.824575    -0.648271    -0.473922   -0.315543   -0.185250   -0.091790   -0.036336  -0.010649 -0.002074 -2.358110e-04 -1.318210e-05 -2.858980e-07 -1.760950e-09 -2.279100e-12 -8.839250e-22 -2.350280e-37 -1.662640e-45
  -362.0         X  4.179560e-36  3.370310e-36  2.717750e-36  2.191540e-36  1.767210e-36     1.669520     1.287790     1.009890     0.800010     0.637609     0.510127     0.409152    0.328710    0.264379    0.212801    0.171376    0.138064    0.111256    0.089669    0.072279    -1.728410    -1.591460    -1.527760    -1.429280    -1.305340    -1.165800    -1.007470    -0.834318    -0.655932    -0.479524   -0.319274   -0.187441   -0.092876   -0.036766  -0.010775 -0.002098 -2.386070e-04 -1.333850e-05 -2.892940e-07 -1.781890e-09 -2.306230e-12 -8.944640e-22 -2.378280e-37 -1.682400e-45
  -360.0         X  4.229570e-36  3.410640e-36  2.750270e-36  2.217760e-36  1.788360e-36     1.689310     1.303060     1.021870     0.809494     0.645169     0.516176     0.414004    0.332609    0.267516    0.215326    0.173409    0.139703    0.112576    0.090733    0.073137    -1.748900    -1.610330    -1.545870    -1.446220    -1.320810    -1.179620    -1.019410    -0.844209    -0.663709    -0.485210   -0.323060   -0.189664   -0.093978   -0.037203  -0.010903 -0.002123 -2.414460e-04 -1.349730e-05 -2.927420e-07 -1.803140e-09 -2.333770e-12 -9.051640e-22 -2.406700e-37 -1.702450e-45
  -358.0         X  4.280350e-36  3.451590e-36  2.783290e-36  2.244390e-36  1.809830e-36     1.709400     1.318560     1.034020     0.819122     0.652843     0.522316     0.418930    0.336566    0.270699    0.217889    0.175473    0.141366    0.113917    0.091814    0.074008    -1.769690    -1.629480    -1.564260    -1.463410    -1.336510    -1.193650    -1.031530    -0.854248    -0.671602    -0.490981   -0.326904   -0.191922   -0.095097   -0.037646  -0.011033 -0.002149 -2.443280e-04 -1.365860e-05 -2.962420e-07 -1.824720e-09 -2.361730e-12 -9.160280e-22 -2.435570e-37 -1.722820e-45
  -356.0         X  4.331910e-36  3.493160e-36  2.816820e-36  2.271420e-36  1.831630e-36     1.729790     1.334290     1.046350     0.828895     0.660633     0.528549     0.423930    0.340584    0.273931    0.220490    0.177569    0.143054    0.115277    0.092910    0.074892    -1.790810    -1.648920    -1.582920    -1.480870    -1.352460    -1.207890    -1.043840    -0.864439    -0.679615    -0.496840   -0.330806   -0.194213   -0.096233   -0.038096  -0.011165 -0.002174 -2.472540e-04 -1.382230e-05 -2.997960e-07 -1.846630e-09 -2.390110e-12 -9.270580e-22 -2.464880e-37 -1.743490e-45
  -354.0         X  4.384270e-36  3.535380e-36  2.850860e-36  2.298880e-36  1.853770e-36     1.750490     1.350250     1.058880     0.838816     0.668541     0.534877     0.429006    0.344662    0.277211    0.223131    0.179696    0.144768    0.116659    0.094024    0.075790    -1.812240    -1.668650    -1.601860    -1.498590    -1.368640    -1.222340    -1.056330    -0.874784    -0.687749    -0.502788   -0.334767   -0.196539   -0.097386   -0.038552  -0.011299 -0.002200 -2.502240e-04 -1.398840e-05 -3.034030e-07 -1.868880e-09 -2.418930e-12 -9.382590e-22 -2.494640e-37 -1.764490e-45
  -352.0         X  4.437430e-36  3.578260e-36  2.885430e-36  2.326760e-36  1.876250e-36     1.771510     1.366470     1.071590     0.848887     0.676569     0.541300     0.434159    0.348802    0.280542    0.225812    0.181855    0.146508    0.118061    0.095154    0.076701    -1.834000    -1.688680    -1.621090    -1.516580    -1.385070    -1.237020    -1.069010    -0.885287    -0.696007    -0.508826   -0.338788   -0.198901   -0.098556   -0.039016  -0.011435 -0.002227 -2.532390e-04 -1.415720e-05 -3.070660e-07 -1.891460e-09 -2.448200e-12 -9.496330e-22 -2.524870e-37 -1.785820e-45
  -350.0         X  4.491430e-36  3.621800e-36  2.920550e-36  2.355070e-36  1.899080e-36     1.792850     1.382920     1.084500     0.859113     0.684719     0.547822     0.439390    0.353006    0.283923    0.228534    0.184048    0.148275    0.119485    0.096302    0.077626    -1.856090    -1.709020    -1.640620    -1.534850    -1.401750    -1.251920    -1.081890    -0.895950    -0.704391    -0.514956   -0.342870   -0.201298   -0.099745   -0.039487  -0.011573 -0.002254 -2.563010e-04 -1.432850e-05 -3.107850e-07 -1.914400e-09 -2.477910e-12 -9.611840e-22 -2.555570e-37 -1.807480e-45
  -348.0         X  4.546270e-36  3.666020e-36  2.956210e-36  2.383820e-36  1.922270e-36     1.814510     1.399630     1.097600     0.869495     0.692995     0.554444     0.444702    0.357274    0.287356    0.231298    0.186274    0.150068    0.120930    0.097467    0.078565    -1.878510    -1.729670    -1.660440    -1.553390    -1.418690    -1.267040    -1.094960    -0.906776    -0.712903    -0.521180   -0.347015   -0.203733   -0.100952   -0.039965  -0.011713 -0.002281 -2.594100e-04 -1.450240e-05 -3.145620e-07 -1.937680e-09 -2.508090e-12 -9.729140e-22 -2.586750e-37 -1.829480e-45
  -346.0         X  4.601970e-36  3.710940e-36  2.992420e-36  2.413030e-36  1.945820e-36     1.836510     1.416600     1.110910     0.880036     0.701397     0.561167     0.450095    0.361607    0.290842    0.234104    0.188534    0.151889    0.122398    0.098650    0.079519    -1.901280    -1.750640    -1.680570    -1.572220    -1.435890    -1.282400    -1.108230    -0.917768    -0.721546    -0.527499   -0.351224   -0.206204   -0.102177   -0.040450  -0.011855 -0.002309 -2.625660e-04 -1.467910e-05 -3.183970e-07 -1.961330e-09 -2.538730e-12 -9.848270e-22 -2.618420e-37 -1.851830e-45
  -344.0         X  4.658540e-36  3.756550e-36  3.029210e-36  2.442690e-36  1.969740e-36     1.858840     1.433830     1.124420     0.890739     0.709928     0.567993     0.455571    0.366007    0.294381    0.236954    0.190829    0.153738    0.123888    0.099851    0.080488    -1.924410    -1.771930    -1.701000    -1.591340    -1.453350    -1.297990    -1.121710    -0.928929    -0.730322    -0.533916   -0.355497   -0.208714   -0.103421   -0.040943  -0.012000 -0.002337 -2.657720e-04 -1.485840e-05 -3.222910e-07 -1.985350e-09 -2.569850e-12 -9.969270e-22 -2.650590e-37 -1.874530e-45
  -342.0         X  4.716010e-36  3.802890e-36  3.066580e-36  2.472830e-36  1.994040e-36     1.881520     1.451320     1.138140     0.901607     0.718592     0.574925     0.461131    0.370475    0.297976    0.239847    0.193159    0.155616    0.125401    0.101071    0.081471    -1.947880    -1.793540    -1.721750    -1.610760    -1.471080    -1.313830    -1.135390    -0.940262    -0.739233    -0.540431   -0.359837   -0.211263   -0.104684   -0.041443  -0.012146 -0.002366 -2.690270e-04 -1.504060e-05 -3.262460e-07 -2.009740e-09 -2.601460e-12 -1.009220e-21 -2.683270e-37 -1.897590e-45
  -340.0         X  4.774380e-36  3.849970e-36  3.104530e-36  2.503430e-36  2.018720e-36     1.904550     1.469080     1.152070     0.912644     0.727389     0.581965     0.466778    0.375012    0.301625    0.242785    0.195526    0.157523    0.126938    0.102310    0.082470    -1.971730    -1.815500    -1.742830    -1.630470    -1.489080    -1.329910    -1.149290    -0.951771    -0.748282    -0.547048   -0.364243   -0.213851   -0.105967   -0.041951  -0.012295 -0.002395 -2.723330e-04 -1.522560e-05 -3.302630e-07 -2.034510e-09 -2.633560e-12 -1.021700e-21 -2.716470e-37 -1.921010e-45
