Name:B X_Dim:600 Y_Dim:120 Conductance:1000.0

### Channel Times ###
      Start      End
0   -1.9505  -1.9495
1   -1.8505  -1.8495
2   -1.7505  -1.7495
3   -1.6505  -1.6495
4   -1.5505  -1.5495
5   -1.4500  -1.4490
6   -1.3505  -1.3495
7   -1.2505  -1.2495
8   -1.1505  -1.1495
9   -1.0505  -1.0495
10  -0.9505  -0.9495
11  -0.8505  -0.8495
12  -0.7505  -0.7495
13  -0.6505  -0.6495
14  -0.5505  -0.5495
15  -0.4505  -0.4495
16  -0.3505  -0.3495
17  -0.2505  -0.2495
18  -0.1505  -0.1495
19  -0.0505  -0.0495
20   0.0250   0.0260
21   0.0545   0.0555
22   0.0695   0.0705
23   0.0945   0.0955
24   0.1295   0.1305
25   0.1745   0.1755
26   0.2345   0.2355
27   0.3145   0.3155
28   0.4195   0.4205
29   0.5595   0.5605
30   0.7445   0.7455
31   0.9895   0.9905
32   1.3145   1.3155
33   1.7445   1.7455
34   2.3145   2.3155
35   3.0745   3.0755
36   4.0845   4.0855
37   5.4245   5.4255
38   7.2045   7.2055
39   9.5695   9.5705
40  12.6595  12.6605
41  22.7295  22.7305
42  39.3945  39.3955
43  48.1145  48.1155

### Data ###
 Station Component          0          1          2          3          4             5             6             7             8             9            10            11            12            13            14           15           16           17           18           19           20           21           22           23           24           25           26           27           28           29           30           31           32           33          34          35          36          37          38          39          40          41         42         43
  -400.0         X   0.067988   0.067620   0.067254   0.066890   0.066528     12.956600     12.859600     12.763200     12.667800     12.573600     12.480400     12.388300     12.297200     12.207100     12.117900    12.029800    11.942600    11.856300    11.771000    11.686500    -1.291590    -1.287260    -1.285070    -1.281440    -1.276380    -1.269920    -1.261380    -1.250150    -1.235640    -1.216720    -1.192420    -1.161410    -1.122230    -1.073540   -1.014020   -0.942453   -0.858981   -0.764793   -0.662059   -0.554158   -0.446826   -0.238669  -0.093142  -0.057836
  -398.0         X   0.068666   0.068294   0.067925   0.067557   0.067191     13.085800     12.987800     12.890400     12.794200     12.699000     12.604900     12.511800     12.419800     12.328800     12.238700    12.149700    12.061600    11.974500    11.888300    11.803000    -1.304530    -1.300160    -1.297950    -1.294280    -1.289160    -1.282640    -1.274020    -1.262670    -1.248020    -1.228900    -1.204360    -1.173030    -1.133460    -1.084280   -1.024160   -0.951869   -0.867557   -0.772422   -0.668658   -0.559676   -0.451271   -0.241041  -0.094068  -0.058412
  -396.0         X   0.069353   0.068977   0.068604   0.068232   0.067863     13.216700     13.117600     13.019300     12.922000     12.825900     12.730800     12.636900     12.543900     12.452000     12.361100    12.271100    12.182200    12.094100    12.007100    11.920900    -1.317630    -1.313220    -1.310990    -1.307280    -1.302110    -1.295520    -1.286810    -1.275350    -1.260550    -1.241240    -1.216440    -1.184810    -1.144830    -1.095150   -1.034430   -0.961404   -0.876241   -0.780147   -0.675339   -0.565263   -0.455772   -0.243443  -0.095007  -0.058995
  -394.0         X   0.070047   0.069668   0.069291   0.068916   0.068543     13.349100     13.249100     13.149800     13.051500     12.954400     12.858400     12.763500     12.669600     12.576700     12.484900    12.394100    12.304200    12.215300    12.127400    12.040300    -1.330900    -1.326440    -1.324190    -1.320440    -1.315220    -1.308570    -1.299770    -1.288190    -1.273240    -1.253730    -1.228690    -1.196730    -1.156340    -1.106160   -1.044820   -0.971058   -0.885034   -0.787969   -0.682103   -0.570919   -0.460328   -0.245874  -0.095957  -0.059586
  -392.0         X   0.070751   0.070368   0.069987   0.069608   0.069232     13.483200     13.382200     13.281900     13.182600     13.084600     12.987600     12.891700     12.796800     12.703000     12.610300    12.518500    12.427800    12.338000    12.249100    12.161200    -1.344340    -1.339840    -1.337560    -1.333770    -1.328500    -1.321770    -1.312890    -1.301190    -1.286090    -1.266390    -1.241080    -1.208800    -1.168000    -1.117310   -1.055340   -0.980834   -0.893936   -0.795888   -0.688952   -0.576646   -0.464942   -0.248336  -0.096919  -0.060184
  -390.0         X   0.071463   0.071077   0.070692   0.070309   0.069929     13.619000     13.517000     13.415600     13.315400     13.216300     13.118300     13.021500     12.925700     12.830900     12.737200    12.644600    12.552900    12.462200    12.372400    12.283700    -1.357940    -1.353400    -1.351090    -1.347270    -1.341950    -1.335150    -1.326180    -1.314360    -1.299100    -1.279200    -1.253630    -1.221020    -1.179800    -1.128600   -1.066000   -0.990733   -0.902951   -0.803907   -0.695887   -0.582445   -0.469613   -0.250829  -0.097892  -0.060789
  -388.0         X   0.072185   0.071794   0.071405   0.071019   0.070635     13.756500     13.653400     13.551000     13.449800     13.349700     13.250800     13.152900     13.056100     12.960400     12.865800    12.772200    12.679600    12.587900    12.497300    12.407600    -1.371720    -1.367130    -1.364800    -1.360940    -1.355560    -1.348700    -1.339630    -1.327690    -1.312280    -1.292170    -1.266340    -1.233390    -1.191760    -1.140030   -1.076790   -1.000760   -0.912080   -0.812027   -0.702909   -0.588316   -0.474343   -0.253352  -0.098879  -0.061402
  -386.0         X   0.072915   0.072521   0.072128   0.071738   0.071349     13.895800     13.791600     13.688200     13.585900     13.484800     13.384900     13.286000     13.188300     13.091600     12.996000    12.901400    12.807800    12.715300    12.623700    12.533100    -1.385680    -1.381040    -1.378690    -1.374780    -1.369350    -1.362410    -1.353250    -1.341190    -1.325620    -1.305310    -1.279220    -1.245930    -1.203870    -1.151610   -1.087720   -1.010910   -0.921324   -0.820250   -0.710019   -0.594261   -0.479132   -0.255907  -0.099877  -0.062023
  -384.0         X   0.073655   0.073256   0.072860   0.072465   0.072073     14.036700     13.931600     13.827100     13.723800     13.621600     13.520600     13.420800     13.322000     13.224400     13.127800    13.032200    12.937700    12.844200    12.751700    12.660200    -1.399810    -1.395120    -1.392750    -1.388800    -1.383310    -1.376310    -1.367050    -1.354870    -1.339130    -1.318610    -1.292250    -1.258620    -1.216130    -1.163330   -1.098790   -1.021190   -0.930684   -0.828576   -0.717219   -0.600281   -0.483981   -0.258495  -0.100888  -0.062651
  -382.0         X   0.074404   0.074001   0.073601   0.073202   0.072806     14.179500     14.073300     13.967700     13.863300     13.760200     13.658100     13.557300     13.457500     13.358800     13.261300    13.164700    13.069300    12.974800    12.881400    12.788900    -1.414120    -1.409380    -1.406990    -1.403000    -1.397460    -1.390380    -1.381030    -1.368710    -1.352820    -1.332080    -1.305450    -1.271480    -1.228540    -1.175210   -1.110000   -1.031600   -0.940164   -0.837008   -0.724510   -0.606377   -0.488891   -0.261115  -0.101912  -0.063288
  -380.0         X   0.075162   0.074756   0.074351   0.073949   0.073548     14.324100     14.216800     14.110100     14.004700     13.900400     13.797400     13.695500     13.594700     13.495000     13.396400    13.298900    13.202500    13.107100    13.012700    12.919300    -1.428620    -1.423830    -1.421410    -1.417380    -1.411780    -1.404630    -1.395180    -1.382740    -1.366680    -1.345730    -1.318820    -1.284500    -1.241120    -1.187230   -1.121350   -1.042140   -0.949764   -0.845546   -0.731894   -0.612550   -0.493864   -0.263767  -0.102948  -0.063932
  -378.0         X   0.075930   0.075520   0.075111   0.074704   0.074300     14.470500     14.362100     14.254300     14.147800     14.042500     13.938400     13.835400     13.733600     13.632900     13.533300    13.434800    13.337400    13.241000    13.145600    13.051300    -1.443300    -1.438460    -1.436010    -1.431950    -1.426280    -1.419060    -1.409510    -1.396940    -1.380720    -1.359550    -1.332370    -1.297680    -1.253860    -1.199410   -1.132840   -1.052810   -0.959486   -0.854193   -0.739371   -0.618801   -0.498899   -0.266454  -0.103998  -0.064585
  -376.0         X   0.076708   0.076293   0.075880   0.075469   0.075061     14.618800     14.509200     14.400400     14.292800     14.186400     14.081200     13.977200     13.874300     13.772600     13.671900    13.572400    13.474000    13.376600    13.280200    13.184900    -1.458170    -1.453280    -1.450810    -1.446700    -1.440980    -1.433670    -1.424030    -1.411330    -1.394940    -1.373550    -1.346080    -1.311040    -1.266750    -1.211740   -1.144490   -1.063630   -0.969332   -0.862950   -0.746943   -0.625132   -0.503998   -0.269174  -0.105061  -0.065246
  -374.0         X   0.077496   0.077077   0.076659   0.076245   0.075832     14.769000     14.658300     14.548300     14.439600     14.332100     14.225800     14.120700     14.016800     13.914000     13.812300    13.711800    13.612300    13.513900    13.416600    13.320300    -1.473230    -1.468290    -1.465790    -1.461640    -1.455860    -1.448480    -1.438730    -1.425900    -1.409340    -1.387730    -1.359970    -1.324560    -1.279820    -1.224230   -1.156280   -1.074580   -0.979304   -0.871819   -0.754611   -0.631543   -0.509161   -0.271929  -0.106138  -0.065915
  -372.0         X   0.078294   0.077870   0.077449   0.077029   0.076613     14.921100     14.809200     14.698100     14.588200     14.479600     14.372200     14.266100     14.161100     14.057200     13.954500    13.852900    13.752400    13.653000    13.554700    13.457400    -1.488480    -1.483490    -1.480970    -1.476770    -1.470930    -1.463470    -1.453630    -1.440660    -1.423920    -1.402090    -1.374040    -1.338260    -1.293050    -1.236890   -1.168220   -1.085670   -0.989403   -0.880802   -0.762377   -0.638035   -0.514390   -0.274718  -0.107228  -0.066593
  -370.0         X   0.079102   0.078674   0.078248   0.077824   0.077403     15.075100     14.962100     14.849800     14.738800     14.629100     14.520600     14.413300     14.307200     14.202300     14.098500    13.995900    13.894300    13.793900    13.694500    13.596200    -1.503930    -1.498890    -1.496340    -1.492100    -1.486200    -1.478660    -1.468710    -1.455610    -1.438700    -1.416630    -1.388290    -1.352140    -1.306460    -1.249700   -1.180320   -1.096900   -0.999632   -0.889899   -0.770243   -0.644611   -0.519686   -0.277543  -0.108332  -0.067280
  -368.0         X   0.079920   0.079487   0.079057   0.078629   0.078204     15.231100     15.116900     15.003500     14.891300     14.780400     14.670800     14.562400     14.455200     14.349200     14.244400    14.140600    14.038100    13.936600    13.836200    13.736800    -1.519580    -1.514490    -1.511910    -1.507630    -1.501660    -1.494050    -1.483990    -1.470760    -1.453660    -1.431370    -1.402730    -1.366190    -1.320030    -1.262680   -1.192570   -1.108280   -1.009990   -0.899113   -0.778209   -0.651270   -0.525049   -0.280404  -0.109450  -0.067975
  -366.0         X   0.080749   0.080312   0.079877   0.079445   0.079015     15.389100     15.273700     15.159100     15.045800     14.933700     14.823000     14.713400     14.605100     14.498000     14.392100    14.287300    14.183600    14.081100    13.979600    13.879200    -1.535440    -1.530290    -1.527690    -1.523360    -1.517330    -1.509640    -1.499470    -1.486100    -1.468820    -1.446290    -1.417350    -1.380430    -1.333780    -1.275830   -1.204980   -1.119810   -1.020490   -0.908445   -0.786278   -0.658015   -0.530481   -0.283302  -0.110582  -0.068679
  -364.0         X   0.081588   0.081146   0.080707   0.080271   0.079836     15.549100     15.432600     15.316700     15.202200     15.089000     14.977100     14.866400     14.757000     14.648700     14.541700    14.435800    14.331000    14.227400    14.124900    14.023500    -1.551500    -1.546300    -1.543660    -1.539290    -1.533200    -1.525420    -1.515150    -1.501630    -1.484180    -1.461410    -1.432160    -1.394850    -1.347710    -1.289150   -1.217550   -1.131480   -1.031120   -0.917898   -0.794450   -0.664846   -0.535983   -0.286236  -0.111729  -0.069392
  -362.0         X   0.082438   0.081992   0.081548   0.081107   0.080668     15.711200     15.593400     15.476400     15.360700     15.246300     15.133200     15.021300     14.910800     14.801400     14.693200    14.586200    14.480400    14.375700    14.272100    14.169600    -1.567770    -1.562510    -1.559850    -1.555430    -1.549270    -1.541420    -1.531040    -1.517380    -1.499740    -1.476720    -1.447170    -1.409460    -1.361820    -1.302640   -1.230290   -1.143310   -1.041880   -0.927472   -0.802727   -0.671765   -0.541555   -0.289208  -0.112891  -0.070115
  -360.0         X   0.083299   0.082849   0.082400   0.081954   0.081511     15.875400     15.756400     15.638100     15.521200     15.405600     15.291300     15.178300     15.066500     14.956000     14.846700    14.738600    14.631600    14.525800    14.421200    14.317600    -1.584250    -1.578940    -1.576250    -1.571780    -1.565560    -1.557620    -1.547130    -1.533320    -1.515490    -1.492240    -1.462370    -1.424270    -1.376120    -1.316310   -1.243190   -1.155280   -1.052790   -0.937171   -0.811112   -0.678773   -0.547198   -0.292218  -0.114067  -0.070846
  -358.0         X   0.084171   0.083716   0.083263   0.082812   0.082364     16.041700     15.921400     15.801900     15.683800     15.567000     15.451500     15.337300     15.224300     15.112600     15.002200    14.892900    14.784800    14.677900    14.572100    14.467500    -1.600950    -1.595580    -1.592860    -1.588350    -1.582060    -1.574030    -1.563430    -1.549480    -1.531460    -1.507950    -1.477770    -1.439260    -1.390600    -1.330150   -1.256250   -1.167420   -1.063840   -0.946995   -0.819604   -0.685871   -0.552914   -0.295267  -0.115259  -0.071587
  -356.0         X   0.085055   0.084595   0.084137   0.083682   0.083229     16.210200     16.088600     15.967900     15.848500     15.730400     15.613700     15.498300     15.384100     15.271300     15.159700    15.049200    14.940000    14.832000    14.725100    14.619300    -1.617870    -1.612440    -1.609690    -1.605130    -1.598770    -1.590660    -1.579950    -1.565840    -1.547630    -1.523880    -1.493370    -1.454450    -1.405270    -1.344180   -1.269490   -1.179710   -1.075030   -0.956946   -0.828207   -0.693062   -0.558704   -0.298354  -0.116466  -0.072338
  -354.0         X   0.085950   0.085485   0.085022   0.084562   0.084105     16.380900     16.258000     16.135900     16.015300     15.896000     15.778000     15.661400     15.546100     15.432000     15.319200    15.207600    15.097200    14.988000    14.880000    14.773100    -1.635010    -1.629520    -1.626740    -1.622130    -1.615710    -1.607510    -1.596680    -1.582420    -1.564020    -1.540010    -1.509170    -1.469840    -1.420130    -1.358380   -1.282900   -1.192160   -1.086370   -0.967027   -0.836921   -0.700345   -0.564569   -0.301482  -0.117688  -0.073098
  -352.0         X   0.086856   0.086386   0.085919   0.085454   0.084992     16.553700     16.429600     16.306200     16.184300     16.063700     15.944500     15.826600     15.710100     15.594800     15.480800    15.368000    15.256500    15.146100    15.037000    14.928900    -1.652370    -1.646830    -1.644020    -1.639360    -1.632860    -1.624580    -1.613630    -1.599220    -1.580620    -1.556350    -1.525190    -1.485430    -1.435190    -1.372780   -1.296490   -1.204780   -1.097850   -0.977240   -0.845749   -0.707722   -0.570509   -0.304650  -0.118926  -0.073868
  -350.0         X   0.087774   0.087300   0.086827   0.086358   0.085890     16.728900     16.603400     16.478700     16.355400     16.233600     16.113100     15.994000     15.876200     15.759700     15.644500    15.530500    15.417800    15.306300    15.195900    15.086800    -1.669960    -1.664360    -1.661520    -1.656810    -1.650250    -1.641870    -1.630810    -1.616240    -1.597440    -1.572910    -1.541410    -1.501220    -1.450440    -1.387360   -1.310260   -1.217560   -1.109490   -0.987585   -0.854691   -0.715196   -0.576527   -0.307859  -0.120180  -0.074648
  -348.0         X   0.088705   0.088225   0.087747   0.087273   0.086801     16.906300     16.779400     16.653400     16.528900     16.405700     16.284000     16.163600     16.044500     15.926800     15.810300    15.695100    15.581200    15.468500    15.357000    15.246700    -1.687790    -1.682120    -1.679250    -1.674490    -1.667860    -1.659390    -1.648210    -1.633490    -1.614480    -1.589690    -1.557850    -1.517230    -1.465900    -1.402140   -1.324200   -1.230510   -1.121270   -0.998066   -0.863750   -0.722767   -0.582623   -0.311109  -0.121451  -0.075438
  -346.0         X   0.089647   0.089162   0.088679   0.088200   0.087723     17.086000     16.957800     16.830500     16.704600     16.580100     16.457000     16.335300     16.215000     16.096000     15.978300    15.861900    15.746700    15.632800    15.520100    15.408600    -1.705850    -1.700120    -1.697220    -1.692410    -1.685700    -1.677150    -1.665840    -1.650960    -1.631750    -1.606690    -1.574500    -1.533440    -1.481560    -1.417110   -1.338330   -1.243630   -1.133220   -1.008680   -0.872928   -0.730436   -0.588798   -0.314402  -0.122738  -0.076239
  -344.0         X   0.090601   0.090111   0.089624   0.089139   0.088657     17.268100     17.138500     17.009800     16.882500     16.756700     16.632400     16.509400     16.387700     16.267500     16.148500    16.030800    15.914500    15.799300    15.685400    15.572700    -1.724150    -1.718360    -1.715430    -1.710560    -1.703790    -1.695140    -1.683710    -1.668670    -1.649250    -1.623910    -1.591380    -1.549870    -1.497430    -1.432280   -1.352650   -1.256920   -1.145320   -1.019440   -0.882225   -0.738206   -0.595053   -0.317737  -0.124042  -0.077050
  -342.0         X   0.091568   0.091073   0.090580   0.090090   0.089603     17.452600     17.321600     17.191500     17.062900     16.935700     16.810000     16.685700     16.562700     16.441200     16.320900    16.202000    16.084400    15.968000    15.852900    15.739000    -1.742690    -1.736840    -1.733880    -1.728960    -1.722110    -1.713360    -1.701810    -1.686610    -1.666980    -1.641360    -1.608480    -1.566520    -1.513500    -1.447650   -1.367150   -1.270390   -1.157580   -1.030340   -0.891645   -0.746077   -0.601390   -0.321116  -0.125362  -0.077871
  -340.0         X   0.092548   0.092047   0.091549   0.091054   0.090562     17.639400     17.507100     17.375600     17.245600     17.117000     16.989900     16.864300     16.740000     16.617200     16.495600    16.375400    16.256500    16.138900    16.022500    15.907400    -1.761490    -1.755570    -1.752580    -1.747600    -1.740680    -1.731830    -1.720160    -1.704790    -1.684940    -1.659050    -1.625800    -1.583390    -1.529800    -1.463220   -1.381850   -1.284030   -1.170000   -1.041380   -0.901188   -0.754051   -0.607810   -0.324538  -0.126700  -0.078703
