Name:C X_Dim:600 Y_Dim:200 Conductance:10000.0

### Channel Times ###
      Start      End
0   -1.9505  -1.9495
1   -1.8505  -1.8495
2   -1.7505  -1.7495
3   -1.6505  -1.6495
4   -1.5505  -1.5495
5   -1.4500  -1.4490
6   -1.3505  -1.3495
7   -1.2505  -1.2495
8   -1.1505  -1.1495
9   -1.0505  -1.0495
10  -0.9505  -0.9495
11  -0.8505  -0.8495
12  -0.7505  -0.7495
13  -0.6505  -0.6495
14  -0.5505  -0.5495
15  -0.4505  -0.4495
16  -0.3505  -0.3495
17  -0.2505  -0.2495
18  -0.1505  -0.1495
19  -0.0505  -0.0495
20   0.0250   0.0260
21   0.0545   0.0555
22   0.0695   0.0705
23   0.0945   0.0955
24   0.1295   0.1305
25   0.1745   0.1755
26   0.2345   0.2355
27   0.3145   0.3155
28   0.4195   0.4205
29   0.5595   0.5605
30   0.7445   0.7455
31   0.9895   0.9905
32   1.3145   1.3155
33   1.7445   1.7455
34   2.3145   2.3155
35   3.0745   3.0755
36   4.0845   4.0855
37   5.4245   5.4255
38   7.2045   7.2055
39   9.5695   9.5705
40  12.6595  12.6605
41  22.7295  22.7305
42  39.3945  39.3955
43  48.1145  48.1155

### Data ###
 Station Component           0           1           2           3           4             5             6             7             8             9            10            11            12            13            14            15            16            17            18            19         20         21         22         23         24         25         26         27         28         29         30         31         32         33         34         35         36         37         38         39         40         41         42         43
  -400.0         X    0.131832    0.131734    0.131637    0.131540    0.131443     22.197600     22.185700     22.173800     22.161900     22.150000     22.138100     22.126200     22.114300     22.102500     22.090600     22.078800     22.067000     22.055100     22.043300     22.031500  -0.046587  -0.046563  -0.046551  -0.046532  -0.046504  -0.046469  -0.046421  -0.046358  -0.046276  -0.046166  -0.046022  -0.045831  -0.045581  -0.045252  -0.044821  -0.044255  -0.043518  -0.042567  -0.041346  -0.039798  -0.037895  -0.032511  -0.025751  -0.023010
  -398.0         X    0.133066    0.132968    0.132870    0.132772    0.132674     22.402500     22.390500     22.378500     22.366400     22.354400     22.342400     22.330400     22.318400     22.306400     22.294500     22.282500     22.270600     22.258700     22.246700     22.234800  -0.047038  -0.047015  -0.047003  -0.046983  -0.046955  -0.046919  -0.046871  -0.046808  -0.046724  -0.046614  -0.046468  -0.046276  -0.046023  -0.045691  -0.045255  -0.044684  -0.043940  -0.042979  -0.041746  -0.040183  -0.038261  -0.032824  -0.025999  -0.023231
  -396.0         X    0.134315    0.134216    0.134117    0.134018    0.133919     22.609700     22.597600     22.585400     22.573300     22.561200     22.549000     22.536900     22.524800     22.512700     22.500700     22.488600     22.476500     22.464500     22.452500     22.440500  -0.047495  -0.047472  -0.047460  -0.047439  -0.047411  -0.047375  -0.047327  -0.047262  -0.047178  -0.047066  -0.046919  -0.046725  -0.046470  -0.046134  -0.045695  -0.045118  -0.044367  -0.043396  -0.042151  -0.040573  -0.038632  -0.033142  -0.026249  -0.023455
  -394.0         X    0.135579    0.135479    0.135379    0.135279    0.135179     22.819300     22.807100     22.794800     22.782500     22.770300     22.758000     22.745800     22.733600     22.721400     22.709200     22.697000     22.684900     22.672700     22.660600     22.648400  -0.047958  -0.047934  -0.047922  -0.047901  -0.047873  -0.047836  -0.047788  -0.047723  -0.047638  -0.047525  -0.047376  -0.047181  -0.046922  -0.046584  -0.046140  -0.045557  -0.044799  -0.043818  -0.042562  -0.040968  -0.039008  -0.033463  -0.026503  -0.023681
  -392.0         X    0.136858    0.136756    0.136655    0.136554    0.136454     23.031300     23.018900     23.006500     22.994100     22.981800     22.969400     22.957100     22.944800     22.932400     22.920100     22.907800     22.895600     22.883300     22.871000     22.858800  -0.048427  -0.048402  -0.048390  -0.048369  -0.048341  -0.048304  -0.048254  -0.048189  -0.048103  -0.047989  -0.047839  -0.047641  -0.047381  -0.047039  -0.046590  -0.046002  -0.045236  -0.044246  -0.042977  -0.041367  -0.039388  -0.033789  -0.026760  -0.023910
  -390.0         X    0.138151    0.138049    0.137947    0.137845    0.137743     23.245700     23.233200     23.220700     23.208200     23.195700     23.183200     23.170800     23.158300     23.145900     23.133500     23.121100     23.108700     23.096300     23.083900     23.071500  -0.048901  -0.048876  -0.048864  -0.048843  -0.048814  -0.048777  -0.048727  -0.048661  -0.048574  -0.048459  -0.048308  -0.048108  -0.047844  -0.047499  -0.047047  -0.046452  -0.045678  -0.044679  -0.043397  -0.041771  -0.039772  -0.034118  -0.027020  -0.024142
  -388.0         X    0.139460    0.139357    0.139254    0.139151    0.139048     23.462500     23.449900     23.437300     23.424700     23.412100     23.399500     23.386900     23.374400     23.361800     23.349300     23.336700     23.324200     23.311700     23.299200     23.286700  -0.049381  -0.049356  -0.049344  -0.049323  -0.049293  -0.049256  -0.049205  -0.049139  -0.049051  -0.048935  -0.048782  -0.048580  -0.048314  -0.047965  -0.047508  -0.046908  -0.046127  -0.045117  -0.043823  -0.042181  -0.040162  -0.034452  -0.027283  -0.024377
  -386.0         X    0.140784    0.140680    0.140576    0.140472    0.140368     23.681900     23.669200     23.656400     23.643700     23.631000     23.618200     23.605500     23.592900     23.580200     23.567500     23.554900     23.542200     23.529600     23.517000     23.504400  -0.049867  -0.049842  -0.049829  -0.049808  -0.049779  -0.049740  -0.049690  -0.049622  -0.049534  -0.049417  -0.049262  -0.049058  -0.048789  -0.048437  -0.047976  -0.047370  -0.046580  -0.045561  -0.044253  -0.042595  -0.040556  -0.034789  -0.027550  -0.024614
  -384.0         X    0.142123    0.142018    0.141913    0.141808    0.141703     23.903700     23.890900     23.878000     23.865200     23.852300     23.839500     23.826700     23.813900     23.801100     23.788300     23.775500     23.762800     23.750000     23.737300     23.724600  -0.050359  -0.050334  -0.050321  -0.050300  -0.050270  -0.050231  -0.050180  -0.050112  -0.050023  -0.049904  -0.049748  -0.049542  -0.049271  -0.048915  -0.048449  -0.047837  -0.047040  -0.046010  -0.044689  -0.043015  -0.040955  -0.035131  -0.027819  -0.024855
  -382.0         X    0.143479    0.143373    0.143267    0.143161    0.143055     24.128200     24.115200     24.102200     24.089200     24.076300     24.063300     24.050400     24.037400     24.024500     24.011600     23.998700     23.985800     23.973000     23.960100     23.947300  -0.050857  -0.050832  -0.050819  -0.050797  -0.050767  -0.050728  -0.050676  -0.050608  -0.050518  -0.050398  -0.050240  -0.050032  -0.049758  -0.049399  -0.048928  -0.048310  -0.047505  -0.046464  -0.045131  -0.043439  -0.041360  -0.035477  -0.028092  -0.025098
  -380.0         X    0.144850    0.144743    0.144636    0.144529    0.144422     24.355200     24.342100     24.329000     24.315900     24.302800     24.289700     24.276600     24.263600     24.250500     24.237500     24.224500     24.211500     24.198500     24.185500     24.172600  -0.051362  -0.051336  -0.051323  -0.051301  -0.051271  -0.051231  -0.051179  -0.051110  -0.051019  -0.050898  -0.050738  -0.050528  -0.050252  -0.049889  -0.049413  -0.048789  -0.047975  -0.046925  -0.045578  -0.043869  -0.041769  -0.035827  -0.028369  -0.025344
  -378.0         X    0.146238    0.146130    0.146021    0.145913    0.145806     24.584800     24.571600     24.558400     24.545200     24.531900     24.518700     24.505500     24.492300     24.479200     24.466000     24.452900     24.439700     24.426600     24.413500     24.400400  -0.051873  -0.051847  -0.051833  -0.051811  -0.051781  -0.051741  -0.051688  -0.051618  -0.051526  -0.051404  -0.051243  -0.051031  -0.050751  -0.050385  -0.049904  -0.049274  -0.048452  -0.047391  -0.046031  -0.044305  -0.042183  -0.036182  -0.028648  -0.025594
  -376.0         X    0.147642    0.147533    0.147423    0.147314    0.147205     24.817100     24.803800     24.790400     24.777100     24.763700     24.750400     24.737100     24.723700     24.710400     24.697200     24.683900     24.670600     24.657400     24.644200     24.630900  -0.052390  -0.052364  -0.052350  -0.052328  -0.052297  -0.052257  -0.052203  -0.052133  -0.052040  -0.051916  -0.051754  -0.051540  -0.051257  -0.050887  -0.050402  -0.049765  -0.048935  -0.047863  -0.046489  -0.044746  -0.042603  -0.036541  -0.028931  -0.025846
  -374.0         X    0.149063    0.148952    0.148842    0.148732    0.148622     25.052100     25.038700     25.025200     25.011700     24.998200     24.984700     24.971300     24.957800     24.944400     24.931000     24.917600     24.904200     24.890800     24.877500     24.864100  -0.052914  -0.052887  -0.052873  -0.052851  -0.052820  -0.052779  -0.052725  -0.052654  -0.052560  -0.052435  -0.052271  -0.052055  -0.051770  -0.051395  -0.050905  -0.050262  -0.049424  -0.048341  -0.046953  -0.045192  -0.043027  -0.036904  -0.029218  -0.026102
  -372.0         X    0.150501    0.150389    0.150278    0.150166    0.150055     25.289800     25.276200     25.262600     25.249000     25.235400     25.221800     25.208200     25.194600     25.181000     25.167500     25.154000     25.140500     25.127000     25.113500     25.100000  -0.053444  -0.053417  -0.053403  -0.053381  -0.053349  -0.053308  -0.053254  -0.053181  -0.053087  -0.052961  -0.052795  -0.052576  -0.052288  -0.051910  -0.051415  -0.050765  -0.049919  -0.048825  -0.047423  -0.045644  -0.043458  -0.037272  -0.029509  -0.026361
  -370.0         X    0.151955    0.151843    0.151730    0.151618    0.151506     25.530300     25.516600     25.502800     25.489000     25.475300     25.461600     25.447800     25.434100     25.420500     25.406800     25.393100     25.379500     25.365800     25.352200     25.338600  -0.053981  -0.053954  -0.053940  -0.053917  -0.053885  -0.053844  -0.053789  -0.053716  -0.053620  -0.053493  -0.053325  -0.053104  -0.052813  -0.052432  -0.051932  -0.051275  -0.050420  -0.049315  -0.047898  -0.046102  -0.043893  -0.037645  -0.029802  -0.026623
  -368.0         X    0.153428    0.153314    0.153200    0.153087    0.152973     25.773500     25.759700     25.745800     25.731900     25.718000     25.704200     25.690300     25.676500     25.662600     25.648800     25.635000     25.621300     25.607500     25.593700     25.580000  -0.054525  -0.054497  -0.054483  -0.054460  -0.054428  -0.054386  -0.054331  -0.054257  -0.054160  -0.054032  -0.053862  -0.053639  -0.053345  -0.052960  -0.052455  -0.051791  -0.050927  -0.049811  -0.048380  -0.046566  -0.044334  -0.038022  -0.030100  -0.026888
  -366.0         X    0.154917    0.154802    0.154688    0.154573    0.154458     26.019600     26.005700     25.991600     25.977600     25.963600     25.949600     25.935600     25.921600     25.907600     25.893700     25.879800     25.865800     25.851900     25.838100     25.824200  -0.055075  -0.055048  -0.055034  -0.055010  -0.054978  -0.054936  -0.054879  -0.054805  -0.054707  -0.054577  -0.054406  -0.054181  -0.053884  -0.053495  -0.052984  -0.052314  -0.051441  -0.050314  -0.048868  -0.047035  -0.044781  -0.038405  -0.030401  -0.027157
  -364.0         X    0.156425    0.156309    0.156193    0.156077    0.155961     26.268600     26.254500     26.240300     26.226100     26.212000     26.197800     26.183700     26.169600     26.155500     26.141400     26.127300     26.113300     26.099300     26.085200     26.071200  -0.055633  -0.055605  -0.055591  -0.055567  -0.055534  -0.055492  -0.055435  -0.055360  -0.055261  -0.055130  -0.054957  -0.054730  -0.054430  -0.054036  -0.053521  -0.052844  -0.051962  -0.050823  -0.049362  -0.047510  -0.045233  -0.038791  -0.030706  -0.027429
  -362.0         X    0.157951    0.157833    0.157716    0.157599    0.157482     26.520500     26.506200     26.491900     26.477600     26.463300     26.449000     26.434700     26.420500     26.406200     26.392000     26.377800     26.363600     26.349400     26.335300     26.321100  -0.056198  -0.056170  -0.056156  -0.056132  -0.056098  -0.056055  -0.055998  -0.055922  -0.055822  -0.055690  -0.055515  -0.055285  -0.054982  -0.054585  -0.054064  -0.053380  -0.052489  -0.051338  -0.049863  -0.047992  -0.045691  -0.039183  -0.031015  -0.027704
  -360.0         X    0.159495    0.159376    0.159258    0.159140    0.159022     26.775300     26.760900     26.746400     26.731900     26.717500     26.703100     26.688700     26.674300     26.659900     26.645600     26.631200     26.616900     26.602600     26.588300     26.574000  -0.056770  -0.056742  -0.056727  -0.056703  -0.056669  -0.056626  -0.056568  -0.056491  -0.056391  -0.056257  -0.056080  -0.055848  -0.055542  -0.055140  -0.054614  -0.053923  -0.053023  -0.051860  -0.050370  -0.048479  -0.046155  -0.039580  -0.031328  -0.027983
  -358.0         X    0.161057    0.160937    0.160818    0.160699    0.160580     27.033000     27.018500     27.003900     26.989300     26.974700     26.960200     26.945600     26.931100     26.916600     26.902100     26.887600     26.873100     26.858600     26.844200     26.829800  -0.057350  -0.057321  -0.057306  -0.057282  -0.057248  -0.057204  -0.057146  -0.057068  -0.056966  -0.056831  -0.056653  -0.056418  -0.056108  -0.055703  -0.055171  -0.054473  -0.053564  -0.052389  -0.050883  -0.048973  -0.046624  -0.039982  -0.031645  -0.028265
  -356.0         X    0.162638    0.162518    0.162397    0.162276    0.162156     27.293800     27.279200     27.264400     27.249700     27.234900     27.220200     27.205500     27.190900     27.176200     27.161600     27.146900     27.132300     27.117700     27.103100     27.088500  -0.057937  -0.057908  -0.057893  -0.057868  -0.057834  -0.057789  -0.057730  -0.057652  -0.057549  -0.057412  -0.057232  -0.056995  -0.056682  -0.056273  -0.055735  -0.055030  -0.054111  -0.052924  -0.051403  -0.049473  -0.047100  -0.040389  -0.031966  -0.028551
  -354.0         X    0.164239    0.164117    0.163995    0.163873    0.163752     27.557700     27.542900     27.528000     27.513100     27.498200     27.483400     27.468500     27.453700     27.438900     27.424100     27.409300     27.394500     27.379800     27.365100     27.350300  -0.058531  -0.058502  -0.058487  -0.058462  -0.058427  -0.058382  -0.058323  -0.058243  -0.058139  -0.058001  -0.057819  -0.057580  -0.057264  -0.056850  -0.056307  -0.055594  -0.054666  -0.053467  -0.051929  -0.049980  -0.047582  -0.040801  -0.032291  -0.028841
  -352.0         X    0.165859    0.165735    0.165612    0.165489    0.165366     27.824600     27.809700     27.794600     27.779600     27.764600     27.749600     27.734600     27.719600     27.704700     27.689700     27.674800     27.659900     27.645000     27.630100     27.615200  -0.059133  -0.059103  -0.059088  -0.059063  -0.059028  -0.058983  -0.058923  -0.058842  -0.058737  -0.058598  -0.058414  -0.058172  -0.057853  -0.057434  -0.056886  -0.056166  -0.055228  -0.054016  -0.052463  -0.050493  -0.048070  -0.041219  -0.032620  -0.029134
  -350.0         X    0.167498    0.167374    0.167249    0.167125    0.167001     28.094700     28.079600     28.064400     28.049200     28.034100     28.018900     28.003800     27.988600     27.973500     27.958400     27.943400     27.928300     27.913300     27.898200     27.883200  -0.059743  -0.059713  -0.059698  -0.059672  -0.059637  -0.059591  -0.059530  -0.059449  -0.059343  -0.059202  -0.059016  -0.058772  -0.058449  -0.058026  -0.057472  -0.056745  -0.055797  -0.054573  -0.053003  -0.051012  -0.048564  -0.041642  -0.032953  -0.029431
  -348.0         X    0.169157    0.169032    0.168906    0.168780    0.168655     28.368000     28.352700     28.337400     28.322000     28.306700     28.291400     28.276100     28.260800     28.245600     28.230300     28.215100     28.199900     28.184700     28.169500     28.154400  -0.060361  -0.060331  -0.060315  -0.060289  -0.060254  -0.060207  -0.060146  -0.060064  -0.059957  -0.059814  -0.059627  -0.059379  -0.059054  -0.058626  -0.058066  -0.057331  -0.056373  -0.055136  -0.053550  -0.051539  -0.049065  -0.042070  -0.033290  -0.029732
  -346.0         X    0.170837    0.170710    0.170583    0.170456    0.170329     28.644500     28.629000     28.613500     28.598000     28.582600     28.567100     28.551700     28.536200     28.520800     28.505400     28.490000     28.474700     28.459300     28.444000     28.428700  -0.060987  -0.060956  -0.060941  -0.060915  -0.060878  -0.060832  -0.060769  -0.060687  -0.060578  -0.060434  -0.060245  -0.059995  -0.059666  -0.059234  -0.058668  -0.057925  -0.056957  -0.055707  -0.054104  -0.052072  -0.049572  -0.042504  -0.033632  -0.030036
  -344.0         X    0.172537    0.172408    0.172280    0.172152    0.172024     28.924200     28.908600     28.892900     28.877300     28.861700     28.846100     28.830500     28.814900     28.799300     28.783800     28.768200     28.752700     28.737200     28.721700     28.706200  -0.061621  -0.061590  -0.061574  -0.061548  -0.061511  -0.061464  -0.061401  -0.061318  -0.061208  -0.061063  -0.060871  -0.060619  -0.060286  -0.059849  -0.059278  -0.058527  -0.057549  -0.056286  -0.054666  -0.052612  -0.050086  -0.042943  -0.033978  -0.030345
  -342.0         X    0.174257    0.174127    0.173998    0.173868    0.173739     29.207200     29.191500     29.175700     29.159900     29.144100     29.128300     29.112500     29.096800     29.081100     29.065400     29.049700     29.034000     29.018300     29.002700     28.987100  -0.062263  -0.062232  -0.062216  -0.062189  -0.062152  -0.062105  -0.062041  -0.061957  -0.061846  -0.061699  -0.061505  -0.061250  -0.060914  -0.060473  -0.059895  -0.059136  -0.058148  -0.056871  -0.055235  -0.053159  -0.050607  -0.043388  -0.034329  -0.030657
  -340.0         X    0.175999    0.175867    0.175737    0.175606    0.175475     29.493600     29.477700     29.461700     29.445700     29.429800     29.413900     29.398000     29.382100     29.366200     29.350300     29.334500     29.318600     29.302800     29.287000     29.271200  -0.062914  -0.062882  -0.062866  -0.062839  -0.062802  -0.062754  -0.062690  -0.062604  -0.062492  -0.062344  -0.062148  -0.061890  -0.061551  -0.061105  -0.060521  -0.059754  -0.058755  -0.057465  -0.055811  -0.053713  -0.051134  -0.043839  -0.034684  -0.030973
  -338.0         X    0.177761    0.177629    0.177497    0.177364    0.177232     29.783300     29.767300     29.751100     29.735000     29.718900     29.702800     29.686700     29.670700     29.654600     29.638600     29.622600     29.606600     29.590600     29.574700     29.558700  -0.063573  -0.063541  -0.063525  -0.063498  -0.063460  -0.063411  -0.063347  -0.063260  -0.063147  -0.062997  -0.062799  -0.062539  -0.062195  -0.061745  -0.061155  -0.060380  -0.059370  -0.058067  -0.056395  -0.054275  -0.051668  -0.044296  -0.035044  -0.031294
  -336.0         X    0.179546    0.179412    0.179278    0.179145    0.179011     30.076500     30.060300     30.044000     30.027700     30.011400     29.995200     29.978900     29.962700     29.946500     29.930300     29.914100     29.898000     29.881800     29.865700     29.849600  -0.064241  -0.064209  -0.064192  -0.064165  -0.064127  -0.064077  -0.064012  -0.063925  -0.063811  -0.063659  -0.063459  -0.063196  -0.062849  -0.062393  -0.061797  -0.061014  -0.059993  -0.058676  -0.056986  -0.054844  -0.052209  -0.044758  -0.035408  -0.031619
