Name:C X_Dim:600 Y_Dim:600 Conductance:10000.0

### Channel Times ###
      Start      End
0   -1.9505  -1.9495
1   -1.8505  -1.8495
2   -1.7505  -1.7495
3   -1.6505  -1.6495
4   -1.5505  -1.5495
5   -1.4500  -1.4490
6   -1.3505  -1.3495
7   -1.2505  -1.2495
8   -1.1505  -1.1495
9   -1.0505  -1.0495
10  -0.9505  -0.9495
11  -0.8505  -0.8495
12  -0.7505  -0.7495
13  -0.6505  -0.6495
14  -0.5505  -0.5495
15  -0.4505  -0.4495
16  -0.3505  -0.3495
17  -0.2505  -0.2495
18  -0.1505  -0.1495
19  -0.0505  -0.0495
20   0.0250   0.0260
21   0.0545   0.0555
22   0.0695   0.0705
23   0.0945   0.0955
24   0.1295   0.1305
25   0.1745   0.1755
26   0.2345   0.2355
27   0.3145   0.3155
28   0.4195   0.4205
29   0.5595   0.5605
30   0.7445   0.7455
31   0.9895   0.9905
32   1.3145   1.3155
33   1.7445   1.7455
34   2.3145   2.3155
35   3.0745   3.0755
36   4.0845   4.0855
37   5.4245   5.4255
38   7.2045   7.2055
39   9.5695   9.5705
40  12.6595  12.6605
41  22.7295  22.7305
42  39.3945  39.3955
43  48.1145  48.1155

### Data ###
 Station Component           0           1           2           3           4             5             6             7             8             9            10            11            12            13            14            15            16            17            18            19         20         21         22         23         24         25         26         27         28         29         30         31         32         33         34         35         36         37         38         39         40         41         42         43
  -400.0         X    0.152287    0.152186    0.152085    0.151984    0.151883     35.247600     35.234200     35.220800     35.207400     35.194000     35.180700     35.167300     35.154000     35.140600     35.127300     35.114000     35.100700     35.087400     35.074200     35.060900  -0.048196  -0.048172  -0.048160  -0.048140  -0.048112  -0.048075  -0.048027  -0.047962  -0.047878  -0.047766  -0.047618  -0.047424  -0.047167  -0.046830  -0.046389  -0.045810  -0.045055  -0.044079  -0.042828  -0.041239  -0.039284  -0.033744  -0.026765  -0.023927
  -398.0         X    0.153604    0.153502    0.153400    0.153298    0.153197     35.525400     35.512000     35.498500     35.484900     35.471400     35.458000     35.444500     35.431000     35.417600     35.404100     35.390700     35.377300     35.363900     35.350500     35.337200  -0.048647  -0.048623  -0.048611  -0.048591  -0.048562  -0.048525  -0.048476  -0.048412  -0.048326  -0.048213  -0.048064  -0.047867  -0.047608  -0.047269  -0.046823  -0.046238  -0.045476  -0.044491  -0.043228  -0.041624  -0.039651  -0.034058  -0.027013  -0.024149
  -396.0         X    0.154936    0.154833    0.154730    0.154627    0.154524     35.806000     35.792400     35.778800     35.765200     35.751600     35.738000     35.724400     35.710800     35.697200     35.683700     35.670100     35.656600     35.643100     35.629600     35.616100  -0.049104  -0.049080  -0.049067  -0.049047  -0.049018  -0.048981  -0.048932  -0.048866  -0.048780  -0.048666  -0.048515  -0.048317  -0.048055  -0.047712  -0.047262  -0.046672  -0.045903  -0.044908  -0.043633  -0.042014  -0.040022  -0.034376  -0.027264  -0.024373
  -394.0         X    0.156282    0.156177    0.156074    0.155970    0.155866     36.089400     36.075600     36.061900     36.048100     36.034400     36.020700     36.007000     35.993300     35.979600     35.965900     35.952200     35.938600     35.925000     35.911300     35.897700  -0.049566  -0.049542  -0.049529  -0.049508  -0.049479  -0.049442  -0.049392  -0.049326  -0.049239  -0.049124  -0.048972  -0.048771  -0.048507  -0.048161  -0.047707  -0.047111  -0.046334  -0.045331  -0.044043  -0.042409  -0.040398  -0.034698  -0.027518  -0.024599
  -392.0         X    0.157642    0.157537    0.157432    0.157328    0.157223     36.375400     36.361600     36.347700     36.333900     36.320000     36.306200     36.292300     36.278500     36.264700     36.250900     36.237100     36.223300     36.209600     36.195800     36.182100  -0.050034  -0.050009  -0.049996  -0.049975  -0.049946  -0.049908  -0.049858  -0.049791  -0.049703  -0.049587  -0.049434  -0.049231  -0.048965  -0.048615  -0.048157  -0.047555  -0.046771  -0.045758  -0.044458  -0.042808  -0.040778  -0.035023  -0.027775  -0.024829
  -390.0         X    0.159018    0.158912    0.158806    0.158700    0.158595     36.664300     36.650400     36.636400     36.622400     36.608400     36.594400     36.580500     36.566500     36.552600     36.538700     36.524800     36.510900     36.497000     36.483100     36.469300  -0.050507  -0.050482  -0.050470  -0.050448  -0.050419  -0.050381  -0.050330  -0.050262  -0.050174  -0.050056  -0.049901  -0.049697  -0.049428  -0.049075  -0.048613  -0.048005  -0.047213  -0.046190  -0.044878  -0.043213  -0.041163  -0.035353  -0.028036  -0.025061
  -388.0         X    0.160409    0.160302    0.160195    0.160088    0.159981     36.956000     36.942000     36.927800     36.913700     36.899600     36.885500     36.871400     36.857300     36.843300     36.829300     36.815200     36.801200     36.787200     36.773200     36.759200  -0.050986  -0.050961  -0.050948  -0.050927  -0.050897  -0.050859  -0.050807  -0.050739  -0.050650  -0.050531  -0.050375  -0.050168  -0.049897  -0.049541  -0.049073  -0.048460  -0.047661  -0.046628  -0.045303  -0.043622  -0.041552  -0.035687  -0.028299  -0.025296
  -386.0         X    0.161815    0.161707    0.161599    0.161491    0.161383     37.250600     37.236400     37.222100     37.207900     37.193600     37.179400     37.165200     37.151000     37.136800     37.122700     37.108500     37.094400     37.080200     37.066100     37.052000  -0.051472  -0.051446  -0.051433  -0.051411  -0.051381  -0.051342  -0.051291  -0.051222  -0.051132  -0.051012  -0.050854  -0.050646  -0.050371  -0.050012  -0.049540  -0.048921  -0.048114  -0.047071  -0.045734  -0.044036  -0.041946  -0.036024  -0.028566  -0.025534
  -384.0         X    0.163236    0.163127    0.163018    0.162910    0.162801     37.548000     37.533700     37.519300     37.504900     37.490600     37.476200     37.461900     37.447600     37.433300     37.419000     37.404700     37.390400     37.376200     37.361900     37.347700  -0.051963  -0.051937  -0.051924  -0.051902  -0.051871  -0.051832  -0.051780  -0.051710  -0.051619  -0.051498  -0.051339  -0.051129  -0.050852  -0.050488  -0.050012  -0.049387  -0.048572  -0.047520  -0.046169  -0.044455  -0.042345  -0.036366  -0.028836  -0.025774
  -382.0         X    0.164674    0.164564    0.164454    0.164344    0.164234     37.848400     37.833900     37.819400     37.804900     37.790400     37.775900     37.761500     37.747000     37.732600     37.718200     37.703700     37.689300     37.675000     37.660600     37.646200  -0.052460  -0.052434  -0.052420  -0.052398  -0.052367  -0.052328  -0.052275  -0.052205  -0.052113  -0.051991  -0.051830  -0.051618  -0.051338  -0.050971  -0.050491  -0.049859  -0.049037  -0.047974  -0.046610  -0.044879  -0.042749  -0.036712  -0.029109  -0.026018
  -380.0         X    0.166127    0.166016    0.165905    0.165794    0.165683     38.151700     38.137100     38.122400     38.107800     38.093200     38.078600     38.064000     38.049400     38.034800     38.020300     38.005700     37.991200     37.976700     37.962200     37.947700  -0.052963  -0.052936  -0.052923  -0.052901  -0.052870  -0.052830  -0.052776  -0.052706  -0.052613  -0.052489  -0.052327  -0.052113  -0.051830  -0.051460  -0.050975  -0.050337  -0.049507  -0.048433  -0.047056  -0.045309  -0.043158  -0.037062  -0.029385  -0.026264
  -378.0         X    0.167596    0.167484    0.167372    0.167260    0.167149     38.457900     38.443200     38.428400     38.413700     38.398900     38.384200     38.369500     38.354700     38.340000     38.325400     38.310700     38.296000     38.281400     38.266800     38.252100  -0.053472  -0.053446  -0.053432  -0.053410  -0.053378  -0.053338  -0.053284  -0.053213  -0.053119  -0.052994  -0.052830  -0.052614  -0.052329  -0.051955  -0.051465  -0.050821  -0.049982  -0.048898  -0.047508  -0.045743  -0.043572  -0.037417  -0.029665  -0.026514
  -376.0         X    0.169082    0.168969    0.168856    0.168743    0.168630     38.767200     38.752400     38.737500     38.722600     38.707700     38.692800     38.677900     38.663100     38.648300     38.633400     38.618600     38.603800     38.589100     38.574300     38.559500  -0.053988  -0.053961  -0.053947  -0.053925  -0.053893  -0.053852  -0.053798  -0.053726  -0.053631  -0.053505  -0.053339  -0.053121  -0.052833  -0.052456  -0.051961  -0.051311  -0.050464  -0.049369  -0.047965  -0.046184  -0.043991  -0.037776  -0.029948  -0.026766
  -374.0         X    0.170585    0.170470    0.170356    0.170242    0.170128     39.079500     39.064500     39.049500     39.034500     39.019400     39.004400     38.989400     38.974500     38.959500     38.944500     38.929600     38.914700     38.899800     38.884900     38.870000  -0.054510  -0.054483  -0.054469  -0.054446  -0.054414  -0.054373  -0.054318  -0.054245  -0.054149  -0.054022  -0.053855  -0.053635  -0.053344  -0.052963  -0.052463  -0.051806  -0.050951  -0.049846  -0.048428  -0.046629  -0.044415  -0.038139  -0.030235  -0.027022
  -372.0         X    0.172104    0.171988    0.171873    0.171758    0.171643     39.394900     39.379800     39.364600     39.349400     39.334300     39.319100     39.304000     39.288900     39.273800     39.258700     39.243600     39.228500     39.213500     39.198500     39.183400  -0.055038  -0.055011  -0.054997  -0.054974  -0.054942  -0.054900  -0.054845  -0.054771  -0.054674  -0.054546  -0.054377  -0.054154  -0.053861  -0.053476  -0.052971  -0.052308  -0.051445  -0.050329  -0.048897  -0.047080  -0.044844  -0.038507  -0.030525  -0.027280
  -370.0         X    0.173640    0.173523    0.173407    0.173291    0.173174     39.713400     39.698100     39.682800     39.667500     39.652200     39.636900     39.621600     39.606400     39.591100     39.575900     39.560700     39.545500     39.530300     39.515100     39.500000  -0.055573  -0.055546  -0.055532  -0.055509  -0.055476  -0.055434  -0.055378  -0.055303  -0.055206  -0.055076  -0.054906  -0.054681  -0.054384  -0.053996  -0.053486  -0.052817  -0.051944  -0.050818  -0.049372  -0.047537  -0.045279  -0.038879  -0.030819  -0.027542
  -368.0         X    0.175193    0.175075    0.174958    0.174840    0.174723     40.035000     40.019600     40.004100     39.988700     39.973200     39.957800     39.942400     39.927000     39.911600     39.896300     39.880900     39.865600     39.850200     39.834900     39.819600  -0.056115  -0.056087  -0.056073  -0.056050  -0.056017  -0.055974  -0.055918  -0.055843  -0.055744  -0.055613  -0.055441  -0.055214  -0.054914  -0.054522  -0.054007  -0.053331  -0.052450  -0.051312  -0.049852  -0.047999  -0.045719  -0.039256  -0.031116  -0.027807
  -366.0         X    0.176764    0.176645    0.176526    0.176408    0.176289     40.359700     40.344200     40.328600     40.313000     40.297400     40.281900     40.266300     40.250800     40.235300     40.219800     40.204300     40.188800     40.173300     40.157900     40.142400  -0.056664  -0.056636  -0.056621  -0.056598  -0.056564  -0.056521  -0.056464  -0.056389  -0.056289  -0.056157  -0.055983  -0.055753  -0.055451  -0.055055  -0.054535  -0.053852  -0.052963  -0.051813  -0.050339  -0.048468  -0.046164  -0.039637  -0.031417  -0.028076
  -364.0         X    0.178352    0.178232    0.178112    0.177993    0.177873     40.687700     40.672000     40.656300     40.640500     40.624800     40.609100     40.593400     40.577700     40.562100     40.546400     40.530800     40.515200     40.499600     40.484000     40.468400  -0.057219  -0.057191  -0.057176  -0.057152  -0.057119  -0.057076  -0.057018  -0.056941  -0.056841  -0.056707  -0.056531  -0.056300  -0.055995  -0.055594  -0.055069  -0.054380  -0.053481  -0.052321  -0.050832  -0.048942  -0.046616  -0.040024  -0.031722  -0.028347
  -362.0         X    0.179958    0.179837    0.179716    0.179595    0.179475     41.018900     41.003100     40.987200     40.971300     40.955400     40.939600     40.923700     40.907900     40.892100     40.876300     40.860500     40.844800     40.829000     40.813300     40.797600  -0.057782  -0.057753  -0.057738  -0.057714  -0.057680  -0.057637  -0.057578  -0.057501  -0.057399  -0.057265  -0.057087  -0.056853  -0.056545  -0.056140  -0.055610  -0.054914  -0.054007  -0.052834  -0.051330  -0.049422  -0.047072  -0.040415  -0.032030  -0.028622
  -360.0         X    0.181582    0.181460    0.181338    0.181216    0.181094     41.353300     41.337400     41.321300     41.305300     41.289300     41.273300     41.257300     41.241300     41.225400     41.209500     41.193500     41.177600     41.161700     41.145800     41.130000  -0.058351  -0.058322  -0.058308  -0.058283  -0.058249  -0.058205  -0.058146  -0.058068  -0.057965  -0.057829  -0.057650  -0.057413  -0.057102  -0.056694  -0.056158  -0.055455  -0.054538  -0.053354  -0.051835  -0.049908  -0.047535  -0.040811  -0.032343  -0.028901
  -358.0         X    0.183225    0.183101    0.182978    0.182855    0.182732     41.691100     41.675000     41.658800     41.642600     41.626400     41.610300     41.594200     41.578100     41.562000     41.545900     41.529800     41.513700     41.497700     41.481700     41.465700  -0.058928  -0.058899  -0.058884  -0.058859  -0.058825  -0.058780  -0.058721  -0.058642  -0.058538  -0.058401  -0.058220  -0.057981  -0.057666  -0.057254  -0.056713  -0.056002  -0.055077  -0.053881  -0.052347  -0.050400  -0.048003  -0.041212  -0.032659  -0.029182
  -356.0         X    0.184886    0.184761    0.184637    0.184512    0.184388     42.032200     42.015900     41.999500     41.983200     41.966900     41.950600     41.934300     41.918100     41.901800     41.885600     41.869400     41.853200     41.837000     41.820800     41.804600  -0.059512  -0.059483  -0.059468  -0.059443  -0.059408  -0.059362  -0.059303  -0.059223  -0.059118  -0.058979  -0.058797  -0.058555  -0.058238  -0.057821  -0.057275  -0.056557  -0.055622  -0.054414  -0.052865  -0.050898  -0.048478  -0.041618  -0.032979  -0.029468
  -354.0         X    0.186566    0.186440    0.186314    0.186188    0.186063     42.376600     42.360200     42.343700     42.327200     42.310700     42.294300     42.277900     42.261400     42.245000     42.228700     42.212300     42.195900     42.179600     42.163300     42.147000  -0.060104  -0.060074  -0.060059  -0.060033  -0.059998  -0.059953  -0.059892  -0.059811  -0.059706  -0.059566  -0.059381  -0.059137  -0.058816  -0.058395  -0.057844  -0.057119  -0.056175  -0.054955  -0.053389  -0.051403  -0.048958  -0.042029  -0.033303  -0.029757
  -352.0         X    0.188265    0.188137    0.188010    0.187884    0.187757     42.724400     42.707800     42.691200     42.674600     42.657900     42.641300     42.624800     42.608200     42.591600     42.575100     42.558600     42.542100     42.525600     42.509100     42.492600  -0.060703  -0.060673  -0.060657  -0.060632  -0.060596  -0.060550  -0.060489  -0.060408  -0.060301  -0.060159  -0.059973  -0.059727  -0.059402  -0.058977  -0.058420  -0.057688  -0.056734  -0.055502  -0.053921  -0.051914  -0.049444  -0.042446  -0.033632  -0.030049
  -350.0         X    0.189983    0.189854    0.189726    0.189598    0.189470     43.075700     43.058900     43.042100     43.025300     43.008600     42.991800     42.975100     42.958400     42.941600     42.925000     42.908300     42.891600     42.875000     42.858300     42.841700  -0.061310  -0.061279  -0.061264  -0.061238  -0.061202  -0.061155  -0.061094  -0.061011  -0.060904  -0.060760  -0.060572  -0.060323  -0.059996  -0.059566  -0.059003  -0.058264  -0.057301  -0.056056  -0.054458  -0.052431  -0.049937  -0.042867  -0.033964  -0.030345
  -348.0         X    0.191720    0.191591    0.191461    0.191332    0.191203     43.430400     43.413500     43.396500     43.379600     43.362700     43.345700     43.328900     43.312000     43.295100     43.278300     43.261400     43.244600     43.227800     43.211000     43.194200  -0.061924  -0.061893  -0.061878  -0.061852  -0.061815  -0.061768  -0.061706  -0.061623  -0.061514  -0.061369  -0.061179  -0.060928  -0.060597  -0.060163  -0.059595  -0.058847  -0.057874  -0.056617  -0.055003  -0.052956  -0.050436  -0.043294  -0.034301  -0.030645
  -346.0         X    0.193478    0.193347    0.193216    0.193086    0.192955     43.788600     43.771500     43.754400     43.737300     43.720200     43.703200     43.686100     43.669100     43.652000     43.635000     43.618000     43.601100     43.584100     43.567200     43.550200  -0.062547  -0.062515  -0.062500  -0.062473  -0.062436  -0.062389  -0.062326  -0.062242  -0.062132  -0.061986  -0.061794  -0.061540  -0.061206  -0.060768  -0.060193  -0.059438  -0.058455  -0.057185  -0.055555  -0.053487  -0.050941  -0.043727  -0.034641  -0.030949
  -344.0         X    0.195255    0.195123    0.194991    0.194859    0.194728     44.150300     44.133100     44.115800     44.098600     44.081300     44.064100     44.046900     44.029700     44.012500     43.995300     43.978200     43.961000     43.943900     43.926800     43.909700  -0.063177  -0.063145  -0.063130  -0.063103  -0.063066  -0.063018  -0.062954  -0.062869  -0.062758  -0.062611  -0.062416  -0.062160  -0.061823  -0.061380  -0.060799  -0.060037  -0.059044  -0.057761  -0.056114  -0.054024  -0.051453  -0.044165  -0.034987  -0.031256
  -342.0         X    0.197053    0.196920    0.196786    0.196653    0.196520     44.515600     44.498300     44.480800     44.463400     44.446000     44.428600     44.411200     44.393900     44.376500     44.359200     44.341900     44.324600     44.307300     44.290000     44.272800  -0.063815  -0.063784  -0.063768  -0.063741  -0.063703  -0.063655  -0.063590  -0.063505  -0.063393  -0.063243  -0.063047  -0.062788  -0.062447  -0.062000  -0.061414  -0.060644  -0.059640  -0.058344  -0.056680  -0.054569  -0.051971  -0.044608  -0.035336  -0.031568
  -340.0         X    0.198872    0.198737    0.198602    0.198467    0.198333     44.884500     44.867000     44.849400     44.831800     44.814200     44.796700     44.779100     44.761600     44.744100     44.726600     44.709100     44.691700     44.674200     44.656800     44.639400  -0.064462  -0.064430  -0.064414  -0.064387  -0.064349  -0.064300  -0.064235  -0.064148  -0.064035  -0.063884  -0.063686  -0.063425  -0.063080  -0.062628  -0.062036  -0.061258  -0.060244  -0.058934  -0.057254  -0.055121  -0.052496  -0.045058  -0.035690  -0.031883
  -338.0         X    0.200711    0.200575    0.200438    0.200303    0.200167     45.257100     45.239400     45.221600     45.203800     45.186100     45.168400     45.150700     45.133000     45.115300     45.097700     45.080000     45.062400     45.044800     45.027200     45.009600  -0.065118  -0.065085  -0.065069  -0.065041  -0.065003  -0.064954  -0.064888  -0.064800  -0.064686  -0.064534  -0.064333  -0.064069  -0.063721  -0.063265  -0.062666  -0.061880  -0.060856  -0.059532  -0.057834  -0.055680  -0.053028  -0.045512  -0.036049  -0.032202
  -336.0         X    0.202571    0.202433    0.202296    0.202159    0.202022     45.633300     45.615400     45.597500     45.579600     45.561600     45.543800     45.525900     45.508000     45.490200     45.472300     45.454500     45.436700     45.419000     45.401200     45.383500  -0.065781  -0.065749  -0.065732  -0.065704  -0.065666  -0.065616  -0.065549  -0.065461  -0.065345  -0.065192  -0.064989  -0.064722  -0.064370  -0.063909  -0.063304  -0.062510  -0.061475  -0.060138  -0.058423  -0.056246  -0.053566  -0.045974  -0.036412  -0.032526
