Name:A X_Dim:600 Y_Dim:120 Conductance:100.0

### Channel Times ###
      Start      End
0   -1.9505  -1.9495
1   -1.8505  -1.8495
2   -1.7505  -1.7495
3   -1.6505  -1.6495
4   -1.5505  -1.5495
5   -1.4500  -1.4490
6   -1.3505  -1.3495
7   -1.2505  -1.2495
8   -1.1505  -1.1495
9   -1.0505  -1.0495
10  -0.9505  -0.9495
11  -0.8505  -0.8495
12  -0.7505  -0.7495
13  -0.6505  -0.6495
14  -0.5505  -0.5495
15  -0.4505  -0.4495
16  -0.3505  -0.3495
17  -0.2505  -0.2495
18  -0.1505  -0.1495
19  -0.0505  -0.0495
20   0.0250   0.0260
21   0.0545   0.0555
22   0.0695   0.0705
23   0.0945   0.0955
24   0.1295   0.1305
25   0.1745   0.1755
26   0.2345   0.2355
27   0.3145   0.3155
28   0.4195   0.4205
29   0.5595   0.5605
30   0.7445   0.7455
31   0.9895   0.9905
32   1.3145   1.3155
33   1.7445   1.7455
34   2.3145   2.3155
35   3.0745   3.0755
36   4.0845   4.0855
37   5.4245   5.4255
38   7.2045   7.2055
39   9.5695   9.5705
40  12.6595  12.6605
41  22.7295  22.7305
42  39.3945  39.3955
43  48.1145  48.1155

### Data ###
 Station Component             0             1             2             3             4             5            6            7            8            9           10           11           12           13           14           15           16           17           18           19           20           21           22           23           24           25           26           27           28           29           30           31           32           33          34          35          36          37         38         39            40            41            42            43
  -400.0         X  6.121500e-11  5.803490e-11  5.502000e-11  5.216170e-11  4.945190e-11     12.457700    11.583500    10.792800    10.076900     9.425070     8.828740     8.280900     7.775800     7.308630     6.875390     6.472670     6.097530     5.747470     5.420290     5.114070    -7.797210    -7.602780    -7.506830    -7.351060    -7.141280    -6.884860    -6.564260    -6.170580    -5.704650    -5.158340    -4.541810    -3.867160    -3.155380    -2.439230   -1.756360   -1.148150   -0.660109   -0.319531  -0.122610  -0.034473 -6.587160e-03 -3.019790e-05 -4.123510e-09 -3.932490e-11
  -398.0         X  6.184620e-11  5.863330e-11  5.558740e-11  5.269970e-11  4.996200e-11     12.581900    11.698900    10.900300    10.177300     9.518940     8.916660     8.363360     7.853210     7.381390     6.943840     6.537100     6.158230     5.804680     5.474250     5.164980    -7.875040    -7.678660    -7.581740    -7.424400    -7.212520    -6.953520    -6.629700    -6.232080    -5.761490    -5.209700    -4.587020    -3.905640    -3.186760    -2.463490   -1.773830   -1.159580   -0.666688   -0.322721  -0.123837  -0.034820 -6.653560e-03 -3.050520e-05 -4.165900e-09 -3.973070e-11
  -396.0         X  6.248580e-11  5.923970e-11  5.616220e-11  5.324470e-11  5.047870e-11     12.707600    11.815800    11.009200    10.278900     9.613990     9.005680     8.446840     7.931590     7.455060     7.013130     6.602330     6.219680     5.862610     5.528880     5.216520    -7.953840    -7.755480    -7.657580    -7.498660    -7.284640    -7.023040    -6.695970    -6.294350    -5.819030    -5.261710    -4.632790    -3.944590    -3.218530    -2.488050   -1.791510   -1.171150   -0.673348   -0.325951  -0.125080  -0.035170 -6.720800e-03 -3.081640e-05 -4.208840e-09 -4.014180e-11
  -394.0         X  6.313370e-11  5.985400e-11  5.674470e-11  5.379690e-11  5.100220e-11     12.835000    11.934200    11.119500    10.381800     9.710210     9.095800     8.531360     8.010950     7.529650     7.083290     6.668380     6.281900     5.921260     5.584180     5.268710    -8.033630    -7.833260    -7.734380    -7.573850    -7.357670    -7.093430    -6.763060    -6.357390    -5.877290    -5.314370    -4.679130    -3.984030    -3.250700    -2.512920   -1.809420   -1.182860   -0.680091   -0.329222  -0.126338  -0.035525 -6.788890e-03 -3.113160e-05 -4.252340e-09 -4.055830e-11
  -392.0         X  6.379020e-11  6.047640e-11  5.733470e-11  5.435630e-11  5.153260e-11     12.963900    12.054000    11.231100    10.486000     9.807650     9.187050     8.616940     8.091300     7.605160     7.154330     6.735260     6.344900     5.980630     5.640190     5.321550    -8.114420    -7.912020    -7.812140    -7.649980    -7.431620    -7.164700    -6.830990    -6.421220    -5.936280    -5.367680    -4.726050    -4.023960    -3.283270    -2.538090   -1.827550   -1.194720   -0.686919   -0.332533  -0.127612  -0.035885 -6.857850e-03 -3.145090e-05 -4.296410e-09 -4.098030e-11
  -390.0         X  6.445530e-11  6.110700e-11  5.793260e-11  5.492320e-11  5.207010e-11     13.094400    12.175300    11.344100    10.591500     9.906300     9.279450     8.703590     8.172660     7.681620     7.226260     6.802970     6.408680     6.040760     5.696890     5.375050    -8.196220    -7.991770    -7.890870    -7.727070    -7.506490    -7.236870    -6.899770    -6.485860    -5.996000    -5.421660    -4.773550    -4.064390    -3.316250    -2.563580   -1.845910   -1.206730   -0.693832   -0.335886  -0.128902  -0.036249 -6.927690e-03 -3.177430e-05 -4.341050e-09 -4.140790e-11
  -388.0         X  6.512930e-11  6.174600e-11  5.853840e-11  5.549750e-11  5.261460e-11     13.226600    12.298200    11.458500    10.698300    10.006200     9.373000     8.791320     8.255030     7.759040     7.299080     6.871520     6.473270     6.101630     5.754300     5.429220    -8.279060    -8.072520    -7.970600    -7.805130    -7.582310    -7.309940    -6.969420    -6.551300    -6.056480    -5.476320    -4.821650    -4.105330    -3.349640    -2.589390   -1.864500   -1.218890   -0.700832   -0.339282  -0.130209  -0.036617 -6.998420e-03 -3.210190e-05 -4.386290e-09 -4.184120e-11
  -386.0         X  6.581220e-11  6.239340e-11  5.915230e-11  5.607950e-11  5.316640e-11     13.360500    12.422600    11.574400    10.806500    10.107300     9.467730     8.880160     8.338440     7.837440     7.372820     6.940940     6.538660     6.163270     5.812430     5.484070    -8.362940    -8.154300    -8.051330    -7.884180    -7.659080    -7.383940    -7.039950    -6.617570    -6.117720    -5.531660    -4.870360    -4.146780    -3.383450    -2.615520   -1.883320   -1.231200   -0.707920   -0.342720  -0.131532  -0.036991 -7.070060e-03 -3.243380e-05 -4.432130e-09 -4.228020e-11
  -384.0         X  6.650420e-11  6.304950e-11  5.977430e-11  5.666920e-11  5.372550e-11     13.496000    12.548600    11.691800    10.916000    10.209700     9.563650     8.970110     8.422900     7.916810     7.447490     7.011230     6.604880     6.225690     5.871290     5.539610    -8.447880    -8.237100    -8.133080    -7.964220    -7.736820    -7.458870    -7.111360    -6.684680    -6.179730    -5.587710    -4.919670    -4.188750    -3.417680    -2.641980   -1.902370   -1.243670   -0.715097   -0.346201  -0.132871  -0.037369 -7.142610e-03 -3.276990e-05 -4.478570e-09 -4.272500e-11
  -382.0         X  6.720540e-11  6.371430e-11  6.040460e-11  5.726680e-11  5.429210e-11     13.633300    12.676100    11.810600    11.026900    10.313500     9.660780     9.061200     8.508420     7.997190     7.523100     7.082410     6.671930     6.288890     5.930900     5.595840    -8.533890    -8.320960    -8.215870    -8.045270    -7.815540    -7.534740    -7.183680    -6.752630    -6.242520    -5.644450    -4.969610    -4.231250    -3.452340    -2.668770   -1.921670   -1.256290   -0.722365   -0.349727  -0.134228  -0.037752 -7.216100e-03 -3.311050e-05 -4.525630e-09 -4.317580e-11
  -380.0         X  6.791590e-11  6.438800e-11  6.104330e-11  5.787240e-11  5.486620e-11     13.772200    12.805300    11.930900    11.139200    10.418500     9.759130     9.153440     8.595030     8.078590     7.599660     7.154490     6.739820     6.352890     5.991250     5.652790    -8.621000    -8.405870    -8.299710    -8.127360    -7.895270    -7.611580    -7.256920    -6.821450    -6.306110    -5.701920    -5.020180    -4.274280    -3.487450    -2.695900   -1.941210   -1.269080   -0.729725   -0.353297  -0.135602  -0.038139 -7.290530e-03 -3.345550e-05 -4.573310e-09 -4.363260e-11
  -378.0         X  6.863600e-11  6.507070e-11  6.169060e-11  5.848610e-11  5.544800e-11     13.913000    12.936100    12.052700    11.253000    10.524800     9.858740     9.246850     8.682730     8.161010     7.677200     7.227470     6.808580     6.417700     6.052370     5.710460    -8.709220    -8.491870    -8.384610    -8.210480    -7.976000    -7.689400    -7.331080    -6.891130    -6.370500    -5.760110    -5.071390    -4.317860    -3.522990    -2.723380   -1.961000   -1.282020   -0.737178   -0.356913  -0.136994  -0.038532 -7.365920e-03 -3.380500e-05 -4.621630e-09 -4.409550e-11
  -376.0         X  6.936580e-11  6.576260e-11  6.234650e-11  5.910800e-11  5.603770e-11     14.055500    13.068600    12.176100    11.368100    10.632500     9.959600     9.341440     8.771540     8.244470     7.755710     7.301390     6.878210     6.483330     6.114270     5.768860    -8.798560    -8.578970    -8.470590    -8.294670    -8.057760    -7.768200    -7.406190    -6.961710    -6.435710    -5.819050    -5.123250    -4.361990    -3.558980    -2.751200   -1.981030   -1.295130   -0.744725   -0.360574  -0.138403  -0.038930 -7.442280e-03 -3.415920e-05 -4.670590e-09 -4.456470e-11
  -374.0         X  7.010530e-11  6.646370e-11  6.301130e-11  5.973830e-11  5.663520e-11     14.199900    13.202800    12.301100    11.484800    10.741600    10.061700     9.437230     8.861480     8.329000     7.835220     7.376240     6.948720     6.549790     6.176950     5.828000    -8.889040    -8.667170    -8.557680    -8.379930    -8.140570    -7.848010    -7.482250    -7.033180    -6.501750    -5.878730    -5.175770    -4.406680    -3.595430    -2.779370   -2.001320   -1.308400   -0.752368   -0.364283  -0.139831  -0.039333 -7.519640e-03 -3.451790e-05 -4.720200e-09 -4.504020e-11
  -372.0         X  7.085480e-11  6.717430e-11  6.368510e-11  6.037700e-11  5.724090e-11     14.346100    13.338700    12.427700    11.602900    10.852000    10.165200     9.534250     8.952560     8.414600     7.915740     7.452040     7.020120     6.617100     6.240420     5.887890    -8.980680    -8.756500    -8.645870    -8.466280    -8.224430    -7.928840    -7.559290    -7.105560    -6.568630    -5.939170    -5.228950    -4.451940    -3.632350    -2.807900   -2.021870   -1.321850   -0.760109   -0.368038  -0.141276  -0.039741 -7.598000e-03 -3.488140e-05 -4.770490e-09 -4.552200e-11
  -370.0         X  7.161450e-11  6.789460e-11  6.436790e-11  6.102440e-11  5.785470e-11     14.494100    13.476300    12.555800    11.722500    10.963900    10.270000     9.632490     9.044800     8.501290     7.997290     7.528800     7.092440     6.685260     6.304710     5.948550    -9.073500    -8.846980    -8.735200    -8.553730    -8.309370    -8.010700    -7.637310    -7.178860    -6.636370    -6.000380    -5.282810    -4.497780    -3.669730    -2.836790   -2.042680   -1.335460   -0.767948   -0.371842  -0.142741  -0.040155 -7.677370e-03 -3.524970e-05 -4.821440e-09 -4.601040e-11
  -368.0         X  7.238440e-11  6.862450e-11  6.506000e-11  6.168060e-11  5.847680e-11     14.644100    13.615700    12.685600    11.843700    11.077200    10.376100     9.731990     9.138220     8.589090     8.079880     7.606550     7.165680     6.754290     6.369810     6.009980    -9.167500    -8.938620    -8.825670    -8.642310    -8.395400    -8.093610    -7.716330    -7.253110    -6.704970    -6.062370    -5.337360    -4.544200    -3.707590    -2.866050   -2.063760   -1.349250   -0.775887   -0.375694  -0.144224  -0.040573 -7.757780e-03 -3.562290e-05 -4.873090e-09 -4.650550e-11
  -366.0         X  7.316480e-11  6.936440e-11  6.576150e-11  6.234570e-11  5.910730e-11     14.796000    13.756800    12.817100    11.966400    11.192000    10.483500     9.832770     9.232830     8.678010     8.163520     7.685290     7.239850     6.824210     6.435750     6.072190    -9.262720    -9.031440    -8.917300    -8.732030    -8.482530    -8.177590    -7.796360    -7.328310    -6.774450    -6.125160    -5.392610    -4.591210    -3.745930    -2.895690   -2.085100   -1.363210   -0.783928   -0.379596  -0.145726  -0.040997 -7.839240e-03 -3.600100e-05 -4.925430e-09 -4.700720e-11
  -364.0         X  7.395580e-11  7.011430e-11  6.647250e-11  6.301980e-11  5.974650e-11     14.949800    13.899800    12.950300    12.090700    11.308200    10.592400     9.934830     9.328660     8.768070     8.248230     7.765040     7.314980     6.895020     6.502530     6.135200    -9.359160    -9.125450    -9.010120    -8.822900    -8.570790    -8.262650    -7.877420    -7.404470    -6.844820    -6.188750    -5.448570    -4.638830    -3.784760    -2.925700   -2.106710   -1.377360   -0.792072   -0.383548  -0.147248  -0.041427 -7.921760e-03 -3.638420e-05 -4.978480e-09 -4.751580e-11
  -362.0         X  7.475750e-11  7.087450e-11  6.719320e-11  6.370310e-11  6.039430e-11     15.105600    14.044600    13.085100    12.216600    11.425900    10.702600    10.038200     9.425720     8.859290     8.334040     7.845810     7.391060     6.966740     6.570170     6.199020    -9.456850    -9.220680    -9.104130    -8.914940    -8.660180    -8.348800    -7.959530    -7.481610    -6.916100    -6.253160    -5.505240    -4.687050    -3.824090    -2.956100   -2.128610   -1.391680   -0.800321   -0.387551  -0.148789  -0.041862 -8.005360e-03 -3.677240e-05 -5.032240e-09 -4.803130e-11
  -360.0         X  7.557020e-11  7.164500e-11  6.792370e-11  6.439570e-11  6.105100e-11     15.263500    14.191300    13.221800    12.344100    11.545100    10.814200    10.142900     9.524020     8.951680     8.420940     7.927620     7.468130     7.039380     6.638670     6.263650    -9.555800    -9.317140    -9.199360    -9.008180    -8.750730    -8.436070    -8.042700    -7.559750    -6.988290    -6.318400    -5.562640    -4.735890    -3.863930    -2.986890   -2.150780   -1.406190   -0.808675   -0.391605  -0.150350  -0.042303 -8.090060e-03 -3.716580e-05 -5.086740e-09 -4.855380e-11
  -358.0         X  7.639400e-11  7.242610e-11  6.866430e-11  6.509780e-11  6.171670e-11     15.423300    14.339900    13.360100    12.473200    11.665900    10.927300    10.249000     9.623590     9.045250     8.508960     8.010480     7.546190     7.112950     6.708060     6.329120    -9.656030    -9.414850    -9.295830    -9.102620    -8.842450    -8.524460    -8.126940    -7.638900    -7.061420    -6.384480    -5.620780    -4.785370    -3.904270    -3.018070   -2.173240   -1.420880   -0.817138   -0.395712  -0.151932  -0.042750 -8.175860e-03 -3.756450e-05 -5.141980e-09 -4.908350e-11
  -356.0         X  7.722920e-11  7.321790e-11  6.941500e-11  6.580960e-11  6.239150e-11     15.585300    14.490400    13.500300    12.604000    11.788200    11.041900    10.356400     9.724440     9.140040     8.598120     8.094410     7.625250     7.187470     6.778340     6.395430    -9.757570    -9.513830    -9.393540    -9.198290    -8.935360    -8.614000    -8.212270    -7.719080    -7.135500    -6.451410    -5.679670    -4.835480    -3.945140    -3.049650   -2.195990   -1.435760   -0.825709   -0.399872  -0.153534  -0.043203 -8.262800e-03 -3.796850e-05 -5.197970e-09 -4.962050e-11
  -354.0         X  7.807580e-11  7.402050e-11  7.017600e-11  6.653110e-11  6.307550e-11     15.749300    14.642800    13.642300    12.736600    11.912100    11.157900    10.465200     9.826600     9.236040     8.688430     8.179420     7.705330     7.262960     6.849530     6.462600    -9.860430    -9.614090    -9.492530    -9.295200    -9.029470    -8.704710    -8.298720    -7.800290    -7.210530    -6.519210    -5.739330    -4.886230    -3.986530    -3.081640   -2.219030   -1.450840   -0.834391   -0.404086  -0.155157  -0.043661 -8.350890e-03 -3.837790e-05 -5.254730e-09 -5.016490e-11
  -352.0         X  7.893400e-11  7.483430e-11  7.094750e-11  6.726260e-11  6.376900e-11     15.915500    14.797200    13.786100    12.870800    12.037600    11.275500    10.575400     9.930080     9.333290     8.779900     8.265540     7.786450     7.339420     6.921640     6.530640    -9.964630    -9.715670    -9.592810    -9.393370    -9.124820    -8.796590    -8.386280    -7.882560    -7.286540    -6.587890    -5.799750    -4.937650    -4.028460    -3.114050   -2.242360   -1.466110   -0.843185   -0.408354  -0.156801  -0.044125 -8.440140e-03 -3.879280e-05 -5.312260e-09 -5.071670e-11
  -350.0         X  7.980410e-11  7.565920e-11  7.172960e-11  6.800410e-11  6.447210e-11     16.083800    14.953700    13.931800    13.006800    12.164700    11.394500    10.687100    10.034900     9.431800     8.872560     8.352760     7.868620     7.416870     6.994680     6.599560   -10.070200    -9.818570    -9.694390    -9.492820    -9.221400    -8.889680    -8.474990    -7.965900    -7.363530    -6.657460    -5.860960    -4.989730    -4.070930    -3.146870   -2.266000   -1.481580   -0.852094   -0.412678  -0.158466  -0.044596 -8.530560e-03 -3.921330e-05 -5.370580e-09 -5.127620e-11
  -348.0         X  8.068620e-11  7.649560e-11  7.252260e-11  6.875590e-11  6.518490e-11     16.254400    15.112100    14.079400    13.144500    12.293500    11.515100    10.800200    10.141100     9.531590     8.966430     8.441120     7.951860     7.495330     7.068670     6.669370   -10.177100    -9.922810    -9.797310    -9.593580    -9.319250    -8.983970    -8.564850    -8.050320    -7.441530    -6.727940    -5.922960    -5.042480    -4.113950    -3.180120   -2.289950   -1.497240   -0.861118   -0.417059  -0.160154  -0.045073 -8.622190e-03 -3.963950e-05 -5.429700e-09 -5.184350e-11
  -346.0         X  8.158060e-11  7.734350e-11  7.332650e-11  6.951820e-11  6.590760e-11     16.427100    15.272700    14.228900    13.284000    12.424000    11.637300    10.914700    10.248600     9.632680     9.061510     8.530630     8.036170     7.574800     7.143620     6.740090   -10.285500   -10.028400    -9.901570    -9.695650    -9.418380    -9.079510    -8.655890    -8.135850    -7.520550    -6.799330    -5.985780    -5.095920    -4.157530    -3.213800   -2.314210   -1.513120   -0.870260   -0.421496  -0.161863  -0.045556 -8.715030e-03 -4.007140e-05 -5.489640e-09 -5.241860e-11
  -344.0         X  8.248740e-11  7.820320e-11  7.414160e-11  7.029100e-11  6.664030e-11     16.602100    15.435300    14.380300    13.425400    12.556100    11.761100    11.030800    10.357600     9.735080     9.157840     8.621310     8.121590     7.655310     7.219550     6.811730   -10.395200   -10.135400   -10.007200    -9.799070    -9.518810    -9.176290    -8.748120    -8.222500    -7.600590    -6.871660    -6.049410    -5.150060    -4.201670    -3.247920   -2.338780   -1.529190   -0.879520   -0.425992  -0.163595  -0.046045 -8.809110e-03 -4.050920e-05 -5.550410e-09 -5.300170e-11
  -342.0         X  8.340680e-11  7.907490e-11  7.496810e-11  7.107460e-11  6.738330e-11     16.779400    15.600100    14.533800    13.568600    12.690000    11.886500    11.148400    10.468000     9.838820     9.255420     8.713160     8.208120     7.736870     7.296470     6.884300   -10.506500   -10.243800   -10.114200    -9.903840    -9.620560    -9.274350    -8.841570    -8.310280    -7.681690    -6.944930    -6.113870    -5.204900    -4.246390    -3.282480   -2.363670   -1.545480   -0.888902   -0.430546  -0.165350  -0.046541 -8.904440e-03 -4.095290e-05 -5.612010e-09 -5.359290e-11
