Name:C X_Dim:600 Y_Dim:30 Conductance:10000.0

### Channel Times ###
      Start      End
0   -1.9505  -1.9495
1   -1.8505  -1.8495
2   -1.7505  -1.7495
3   -1.6505  -1.6495
4   -1.5505  -1.5495
5   -1.4500  -1.4490
6   -1.3505  -1.3495
7   -1.2505  -1.2495
8   -1.1505  -1.1495
9   -1.0505  -1.0495
10  -0.9505  -0.9495
11  -0.8505  -0.8495
12  -0.7505  -0.7495
13  -0.6505  -0.6495
14  -0.5505  -0.5495
15  -0.4505  -0.4495
16  -0.3505  -0.3495
17  -0.2505  -0.2495
18  -0.1505  -0.1495
19  -0.0505  -0.0495
20   0.0250   0.0260
21   0.0545   0.0555
22   0.0695   0.0705
23   0.0945   0.0955
24   0.1295   0.1305
25   0.1745   0.1755
26   0.2345   0.2355
27   0.3145   0.3155
28   0.4195   0.4205
29   0.5595   0.5605
30   0.7445   0.7455
31   0.9895   0.9905
32   1.3145   1.3155
33   1.7445   1.7455
34   2.3145   2.3155
35   3.0745   3.0755
36   4.0845   4.0855
37   5.4245   5.4255
38   7.2045   7.2055
39   9.5695   9.5705
40  12.6595  12.6605
41  22.7295  22.7305
42  39.3945  39.3955
43  48.1145  48.1155

### Data ###
 Station Component          0          1          2          3          4            5            6            7            8            9           10           11           12           13           14           15           16           17           18           19          20          21          22          23          24          25          26          27          28          29          30          31          32          33          34          35          36          37          38          39            40         41         42         43
  -400.0         X   0.018973   0.018929   0.018884   0.018840   0.018796     1.566820     1.562270     1.557710     1.553180     1.548670     1.544170     1.539700     1.535240     1.530800     1.526390     1.521990     1.517610     1.513250     1.508910     1.504590   -0.047866   -0.047793   -0.047756   -0.047694   -0.047608   -0.047498   -0.047351   -0.047156   -0.046903   -0.046568   -0.046132   -0.045564   -0.044826   -0.043879   -0.042671   -0.041139   -0.039233   -0.036911   -0.034144   -0.030943 -2.741970e-02  -0.019372  -0.012000  -0.009591
  -398.0         X   0.019185   0.019140   0.019095   0.019050   0.019006     1.584330     1.579730     1.575120     1.570540     1.565970     1.561430     1.556900     1.552400     1.547910     1.543440     1.539000     1.534570     1.530160     1.525770     1.521400   -0.048401   -0.048328   -0.048290   -0.048228   -0.048140   -0.048029   -0.047880   -0.047684   -0.047427   -0.047089   -0.046648   -0.046073   -0.045328   -0.044370   -0.043148   -0.041599   -0.039672   -0.037323   -0.034526   -0.031289 -2.772610e-02  -0.019588  -0.012134  -0.009698
  -396.0         X   0.019400   0.019355   0.019309   0.019264   0.019219     1.602090     1.597430     1.592780     1.588140     1.583520     1.578930     1.574350     1.569800     1.565260     1.560740     1.556250     1.551770     1.547310     1.542880     1.538460   -0.048944   -0.048870   -0.048832   -0.048769   -0.048680   -0.048567   -0.048418   -0.048219   -0.047960   -0.047617   -0.047171   -0.046590   -0.045836   -0.044867   -0.043632   -0.042066   -0.040117   -0.037742   -0.034913   -0.031640 -2.803690e-02  -0.019808  -0.012270  -0.009807
  -394.0         X   0.019618   0.019572   0.019526   0.019480   0.019435     1.620100     1.615390     1.610680     1.606000     1.601330     1.596680     1.592050     1.587450     1.582860     1.578290     1.573740     1.569220     1.564710     1.560220     1.555750   -0.049495   -0.049419   -0.049381   -0.049317   -0.049228   -0.049114   -0.048962   -0.048761   -0.048499   -0.048153   -0.047702   -0.047114   -0.046352   -0.045372   -0.044123   -0.042539   -0.040568   -0.038166   -0.035305   -0.031996 -2.835210e-02  -0.020030  -0.012408  -0.009917
  -392.0         X   0.019839   0.019793   0.019746   0.019700   0.019654     1.638370     1.633610     1.628850     1.624110     1.619390     1.614690     1.610010     1.605350     1.600710     1.596090     1.591490     1.586910     1.582360     1.577820     1.573300   -0.050054   -0.049977   -0.049938   -0.049874   -0.049784   -0.049668   -0.049515   -0.049312   -0.049046   -0.048696   -0.048240   -0.047646   -0.046875   -0.045884   -0.044621   -0.043019   -0.041026   -0.038597   -0.035704   -0.032357 -2.867180e-02  -0.020256  -0.012548  -0.010029
  -390.0         X   0.020064   0.020017   0.019970   0.019923   0.019876     1.656910     1.652090     1.647280     1.642480     1.637710     1.632950     1.628220     1.623510     1.618820     1.614150     1.609500     1.604870     1.600260     1.595670     1.591100   -0.050620   -0.050543   -0.050504   -0.050439   -0.050347   -0.050231   -0.050075   -0.049870   -0.049602   -0.049248   -0.048786   -0.048185   -0.047405   -0.046404   -0.045126   -0.043506   -0.041490   -0.039034   -0.036108   -0.032723 -2.899620e-02  -0.020485  -0.012689  -0.010142
  -388.0         X   0.020291   0.020244   0.020196   0.020149   0.020102     1.675710     1.670840     1.665970     1.661120     1.656290     1.651480     1.646700     1.641930     1.637190     1.632460     1.627760     1.623080     1.618420     1.613770     1.609150   -0.051195   -0.051117   -0.051077   -0.051011   -0.050919   -0.050801   -0.050644   -0.050436   -0.050165   -0.049807   -0.049340   -0.048732   -0.047944   -0.046931   -0.045638   -0.044000   -0.041961   -0.039477   -0.036518   -0.033094 -2.932520e-02  -0.020718  -0.012833  -0.010257
  -386.0         X   0.020522   0.020474   0.020426   0.020378   0.020330     1.694780     1.689860     1.684930     1.680030     1.675140     1.670280     1.665440     1.660620     1.655820     1.651040     1.646290     1.641550     1.636840     1.632140     1.627470   -0.051778   -0.051699   -0.051659   -0.051592   -0.051499   -0.051380   -0.051221   -0.051011   -0.050736   -0.050375   -0.049902   -0.049287   -0.048490   -0.047465   -0.046158   -0.044501   -0.042439   -0.039926   -0.036933   -0.033471 -2.965900e-02  -0.020953  -0.012979  -0.010374
  -384.0         X   0.020757   0.020708   0.020659   0.020611   0.020562     1.714130     1.709150     1.704170     1.699210     1.694270     1.689350     1.684460     1.679580     1.674730     1.669900     1.665080     1.660290     1.655530     1.650780     1.646050   -0.052370   -0.052290   -0.052250   -0.052182   -0.052088   -0.051967   -0.051806   -0.051594   -0.051316   -0.050950   -0.050472   -0.049851   -0.049044   -0.048007   -0.046685   -0.045009   -0.042924   -0.040382   -0.037355   -0.033853 -2.999760e-02  -0.021193  -0.013127  -0.010492
  -382.0         X   0.020994   0.020945   0.020896   0.020847   0.020798     1.733770     1.728730     1.723690     1.718670     1.713670     1.708700     1.703750     1.698820     1.693910     1.689020     1.684160     1.679310     1.674490     1.669680     1.664900   -0.052970   -0.052889   -0.052848   -0.052780   -0.052685   -0.052562   -0.052400   -0.052185   -0.051904   -0.051534   -0.051051   -0.050422   -0.049606   -0.048558   -0.047220   -0.045525   -0.043416   -0.040845   -0.037783   -0.034241 -3.034110e-02  -0.021435  -0.013278  -0.010612
  -380.0         X   0.021235   0.021185   0.021136   0.021086   0.021037     1.753680     1.748590     1.743490     1.738410     1.733360     1.728330     1.723320     1.718330     1.713370     1.708430     1.703500     1.698600     1.693720     1.688870     1.684030   -0.053580   -0.053498   -0.053456   -0.053387   -0.053290   -0.053167   -0.053003   -0.052785   -0.052501   -0.052127   -0.051638   -0.051002   -0.050176   -0.049116   -0.047763   -0.046048   -0.043915   -0.041314   -0.038217   -0.034634 -3.068970e-02  -0.021681  -0.013430  -0.010734
  -378.0         X   0.021480   0.021430   0.021379   0.021329   0.021279     1.773900     1.768740     1.763580     1.758450     1.753340     1.748250     1.743180     1.738140     1.733120     1.728120     1.723140     1.718180     1.713240     1.708330     1.703440   -0.054198   -0.054115   -0.054073   -0.054003   -0.053905   -0.053780   -0.053614   -0.053394   -0.053107   -0.052728   -0.052234   -0.051590   -0.050755   -0.049682   -0.048314   -0.046579   -0.044421   -0.041791   -0.038658   -0.035033 -3.104340e-02  -0.021931  -0.013585  -0.010858
  -376.0         X   0.021728   0.021677   0.021626   0.021576   0.021525     1.794400     1.789190     1.783970     1.778780     1.773610     1.768460     1.763330     1.758230     1.753150     1.748090     1.743060     1.738040     1.733050     1.728080     1.723130   -0.054825   -0.054741   -0.054698   -0.054628   -0.054529   -0.054402   -0.054234   -0.054011   -0.053721   -0.053338   -0.052838   -0.052187   -0.051342   -0.050257   -0.048873   -0.047118   -0.044935   -0.042274   -0.039105   -0.035438 -3.140230e-02  -0.022185  -0.013742  -0.010983
  -374.0         X   0.021980   0.021929   0.021877   0.021826   0.021774     1.815210     1.809940     1.804660     1.799410     1.794180     1.788970     1.783780     1.778620     1.773480     1.768370     1.763270     1.758200     1.753150     1.748120     1.743110   -0.055461   -0.055376   -0.055333   -0.055262   -0.055162   -0.055034   -0.054864   -0.054638   -0.054345   -0.053957   -0.053451   -0.052792   -0.051938   -0.050840   -0.049440   -0.047665   -0.045456   -0.042764   -0.039559   -0.035849 -3.176640e-02  -0.022442  -0.013901  -0.011111
  -372.0         X   0.022236   0.022184   0.022131   0.022079   0.022028     1.836330     1.830990     1.825650     1.820340     1.815050     1.809780     1.804530     1.799310     1.794110     1.788940     1.783780     1.778650     1.773540     1.768450     1.763390   -0.056107   -0.056021   -0.055977   -0.055905   -0.055804   -0.055675   -0.055503   -0.055274   -0.054977   -0.054585   -0.054073   -0.053407   -0.052543   -0.051432   -0.050016   -0.048220   -0.045985   -0.043262   -0.040019   -0.036267 -3.213600e-02  -0.022703  -0.014063  -0.011240
  -370.0         X   0.022495   0.022442   0.022390   0.022337   0.022285     1.857760     1.852360     1.846960     1.841580     1.836230     1.830900     1.825590     1.820310     1.815050     1.809810     1.804600     1.799410     1.794240     1.789090     1.783970   -0.056762   -0.056675   -0.056631   -0.056558   -0.056456   -0.056325   -0.056151   -0.055920   -0.055620   -0.055223   -0.054705   -0.054031   -0.053156   -0.052033   -0.050600   -0.048783   -0.046522   -0.043767   -0.040486   -0.036690 -3.251100e-02  -0.022968  -0.014227  -0.011371
  -368.0         X   0.022759   0.022705   0.022652   0.022599   0.022545     1.879510     1.874050     1.868580     1.863140     1.857720     1.852330     1.846960     1.841620     1.836300     1.831000     1.825720     1.820470     1.815240     1.810040     1.804850   -0.057427   -0.057339   -0.057295   -0.057221   -0.057117   -0.056985   -0.056809   -0.056575   -0.056271   -0.055870   -0.055346   -0.054664   -0.053779   -0.052642   -0.051192   -0.049354   -0.047067   -0.044280   -0.040960   -0.037119 -3.289150e-02  -0.023236  -0.014393  -0.011504
  -366.0         X   0.023026   0.022971   0.022918   0.022864   0.022810     1.901580     1.896050     1.890520     1.885020     1.879540     1.874090     1.868650     1.863250     1.857860     1.852500     1.847160     1.841850     1.836560     1.831290     1.826050   -0.058102   -0.058013   -0.057968   -0.057893   -0.057789   -0.057654   -0.057476   -0.057240   -0.056932   -0.056526   -0.055996   -0.055306   -0.054411   -0.053261   -0.051794   -0.049934   -0.047620   -0.044800   -0.041441   -0.037555 -3.327780e-02  -0.023509  -0.014562  -0.011639
  -364.0         X   0.023297   0.023242   0.023187   0.023133   0.023079     1.923980     1.918390     1.912800     1.907230     1.901680     1.896160     1.890670     1.885200     1.879750     1.874320     1.868920     1.863550     1.858190     1.852860     1.847560   -0.058787   -0.058697   -0.058652   -0.058576   -0.058470   -0.058334   -0.058154   -0.057915   -0.057604   -0.057193   -0.056656   -0.055958   -0.055052   -0.053889   -0.052405   -0.050523   -0.048181   -0.045328   -0.041930   -0.037998 -3.366980e-02  -0.023786  -0.014733  -0.011776
  -362.0         X   0.023572   0.023517   0.023461   0.023406   0.023351     1.946720     1.941060     1.935400     1.929770     1.924160     1.918570     1.913010     1.907470     1.901960     1.896470     1.891010     1.885570     1.880150     1.874760     1.869390   -0.059482   -0.059392   -0.059345   -0.059269   -0.059161   -0.059024   -0.058842   -0.058600   -0.058285   -0.057869   -0.057327   -0.056620   -0.055704   -0.054526   -0.053024   -0.051120   -0.048751   -0.045864   -0.042425   -0.038447 -3.406770e-02  -0.024067  -0.014907  -0.011915
  -360.0         X   0.023851   0.023795   0.023740   0.023684   0.023628     1.969800     1.964070     1.958350     1.952640     1.946970     1.941320     1.935690     1.930090     1.924510     1.918960     1.913430     1.907920     1.902440     1.896990     1.891550   -0.060188   -0.060096   -0.060050   -0.059972   -0.059864   -0.059725   -0.059540   -0.059295   -0.058977   -0.058556   -0.058007   -0.057292   -0.056364   -0.055173   -0.053653   -0.051727   -0.049329   -0.046408   -0.042929   -0.038903 -3.447160e-02  -0.024352  -0.015084  -0.012056
  -358.0         X   0.024135   0.024078   0.024022   0.023965   0.023909     1.993220     1.987430     1.981640     1.975870     1.970120     1.964400     1.958710     1.953040     1.947400     1.941780     1.936180     1.930610     1.925070     1.919550     1.914050   -0.060905   -0.060812   -0.060764   -0.060686   -0.060576   -0.060436   -0.060249   -0.060001   -0.059679   -0.059253   -0.058697   -0.057974   -0.057035   -0.055830   -0.054292   -0.052342   -0.049916   -0.046960   -0.043439   -0.039366 -3.488150e-02  -0.024642  -0.015263  -0.012199
  -356.0         X   0.024423   0.024365   0.024308   0.024251   0.024194     2.017000     2.011140     2.005280     1.999440     1.993630     1.987840     1.982080     1.976340     1.970630     1.964950     1.959280     1.953650     1.948040     1.942450     1.936880   -0.061632   -0.061538   -0.061490   -0.061410   -0.061299   -0.061157   -0.060968   -0.060718   -0.060391   -0.059960   -0.059398   -0.058666   -0.057716   -0.056496   -0.054940   -0.052967   -0.050512   -0.047521   -0.043958   -0.039835 -3.529770e-02  -0.024935  -0.015445  -0.012345
  -354.0         X   0.024715   0.024657   0.024599   0.024541   0.024484     2.041150     2.035210     2.029280     2.023370     2.017490     2.011630     2.005800     2.000000     1.994220     1.988460     1.982730     1.977030     1.971350     1.965700     1.960060   -0.062370   -0.062275   -0.062227   -0.062146   -0.062034   -0.061890   -0.061699   -0.061445   -0.061115   -0.060679   -0.060110   -0.059369   -0.058408   -0.057173   -0.055598   -0.053601   -0.051117   -0.048090   -0.044484   -0.040312 -3.572020e-02  -0.025234  -0.015630  -0.012492
  -352.0         X   0.025012   0.024953   0.024894   0.024836   0.024778     2.065650     2.059650     2.053650     2.047670     2.041710     2.035790     2.029890     2.024010     2.018160     2.012340     2.006540     2.000770     1.995020     1.989300     1.983600   -0.063120   -0.063023   -0.062975   -0.062893   -0.062779   -0.062634   -0.062440   -0.062184   -0.061849   -0.061408   -0.060832   -0.060082   -0.059110   -0.057860   -0.056266   -0.054246   -0.051731   -0.048667   -0.045018   -0.040796 -3.614910e-02  -0.025537  -0.015818  -0.012642
  -350.0         X   0.025313   0.025253   0.025194   0.025135   0.025076     2.090540     2.084460     2.078380     2.072330     2.066310     2.060310     2.054340     2.048390     2.042470     2.036580     2.030710     2.024870     2.019050     2.013260     2.007490   -0.063881   -0.063783   -0.063734   -0.063651   -0.063536   -0.063389   -0.063193   -0.062933   -0.062595   -0.062148   -0.061565   -0.060806   -0.059822   -0.058558   -0.056944   -0.054899   -0.052355   -0.049254   -0.045561   -0.041288 -3.658450e-02  -0.025844  -0.016008  -0.012794
  -348.0         X   0.025619   0.025558   0.025498   0.025438   0.025379     2.115800     2.109650     2.103500     2.097370     2.091280     2.085210     2.079160     2.073140     2.067150     2.061190     2.055250     2.049340     2.043450     2.037590     2.031750   -0.064654   -0.064555   -0.064505   -0.064421   -0.064305   -0.064156   -0.063957   -0.063694   -0.063352   -0.062900   -0.062310   -0.061542   -0.060546   -0.059266   -0.057633   -0.055563   -0.052988   -0.049849   -0.046111   -0.041787 -3.702660e-02  -0.026156  -0.016201  -0.012949
  -346.0         X   0.025929   0.025868   0.025807   0.025747   0.025686     2.141450     2.135230     2.129000     2.122800     2.116630     2.110480     2.104370     2.098280     2.092210     2.086180     2.080170     2.074180     2.068220     2.062290     2.056380   -0.065438   -0.065338   -0.065287   -0.065203   -0.065085   -0.064934   -0.064733   -0.064467   -0.064121   -0.063663   -0.063066   -0.062289   -0.061280   -0.059985   -0.058332   -0.056237   -0.053630   -0.050454   -0.046671   -0.042294 -3.747550e-02  -0.026473  -0.016397  -0.013106
  -344.0         X   0.026244   0.026183   0.026121   0.026060   0.025999     2.167490     2.161190     2.154890     2.148620     2.142370     2.136150     2.129960     2.123800     2.117660     2.111550     2.105460     2.099410     2.093380     2.087370     2.081390   -0.066235   -0.066134   -0.066082   -0.065997   -0.065878   -0.065725   -0.065521   -0.065252   -0.064901   -0.064438   -0.063834   -0.063047   -0.062026   -0.060715   -0.059042   -0.056922   -0.054283   -0.051068   -0.047239   -0.042808 -3.793130e-02  -0.026795  -0.016597  -0.013265
  -342.0         X   0.026564   0.026502   0.026440   0.026378   0.026316     2.193940     2.187560     2.181190     2.174830     2.168510     2.162220     2.155950     2.149710     2.143500     2.137310     2.131150     2.125020     2.118920     2.112840     2.106790   -0.067044   -0.066941   -0.066889   -0.066803   -0.066682   -0.066527   -0.066322   -0.066049   -0.065694   -0.065225   -0.064613   -0.063817   -0.062784   -0.061456   -0.059763   -0.057617   -0.054946   -0.051691   -0.047815   -0.043331 -3.839410e-02  -0.027122  -0.016799  -0.013427
  -340.0         X   0.026890   0.026826   0.026763   0.026700   0.026638     2.220800     2.214340     2.207890     2.201460     2.195060     2.188680     2.182340     2.176020     2.169740     2.163480     2.157240     2.151030     2.144850     2.138700     2.132580   -0.067865   -0.067762   -0.067709   -0.067621   -0.067499   -0.067342   -0.067134   -0.066858   -0.066499   -0.066024   -0.065405   -0.064599   -0.063553   -0.062209   -0.060495   -0.058322   -0.055619   -0.052324   -0.048401   -0.043861 -3.886410e-02  -0.027454  -0.017005  -0.013591
  -338.0         X   0.027220   0.027156   0.027092   0.027028   0.026965     2.248070     2.241540     2.235000     2.228490     2.222010     2.215560     2.209140     2.202750     2.196380     2.190040     2.183730     2.177450     2.171200     2.164970     2.158760   -0.068700   -0.068595   -0.068541   -0.068453   -0.068329   -0.068170   -0.067960   -0.067680   -0.067316   -0.066836   -0.066209   -0.065393   -0.064334   -0.062974   -0.061239   -0.059039   -0.056302   -0.052967   -0.048995   -0.044400 -3.934140e-02  -0.027791  -0.017213  -0.013758
  -336.0         X   0.027555   0.027490   0.027425   0.027361   0.027297     2.275770     2.269150     2.262540     2.255950     2.249390     2.242860     2.236360     2.229890     2.223440     2.217030     2.210640     2.204280     2.197950     2.191640     2.185360   -0.069547   -0.069441   -0.069387   -0.069297   -0.069172   -0.069011   -0.068798   -0.068515   -0.068146   -0.067660   -0.067026   -0.066199   -0.065128   -0.063750   -0.061994   -0.059767   -0.056996   -0.053620   -0.049599   -0.044947 -3.982610e-02  -0.028133  -0.017425  -0.013927
