Name:C X_Dim:600 Y_Dim:60 Conductance:10000.0

### Channel Times ###
      Start      End
0   -1.9505  -1.9495
1   -1.8505  -1.8495
2   -1.7505  -1.7495
3   -1.6505  -1.6495
4   -1.5505  -1.5495
5   -1.4500  -1.4490
6   -1.3505  -1.3495
7   -1.2505  -1.2495
8   -1.1505  -1.1495
9   -1.0505  -1.0495
10  -0.9505  -0.9495
11  -0.8505  -0.8495
12  -0.7505  -0.7495
13  -0.6505  -0.6495
14  -0.5505  -0.5495
15  -0.4505  -0.4495
16  -0.3505  -0.3495
17  -0.2505  -0.2495
18  -0.1505  -0.1495
19  -0.0505  -0.0495
20   0.0250   0.0260
21   0.0545   0.0555
22   0.0695   0.0705
23   0.0945   0.0955
24   0.1295   0.1305
25   0.1745   0.1755
26   0.2345   0.2355
27   0.3145   0.3155
28   0.4195   0.4205
29   0.5595   0.5605
30   0.7445   0.7455
31   0.9895   0.9905
32   1.3145   1.3155
33   1.7445   1.7455
34   2.3145   2.3155
35   3.0745   3.0755
36   4.0845   4.0855
37   5.4245   5.4255
38   7.2045   7.2055
39   9.5695   9.5705
40  12.6595  12.6605
41  22.7295  22.7305
42  39.3945  39.3955
43  48.1145  48.1155

### Data ###
 Station Component           0           1           2          3          4            5            6            7            8            9           10           11           12           13           14           15           16           17           18           19          20          21          22          23          24          25          26          27          28          29          30          31          32          33          34          35          36          37          38          39          40         41         42         43
  -400.0         X    0.055471    0.055393    0.055315   0.055238   0.055161     5.001150     4.993820     4.986470     4.979130     4.971810     4.964510     4.957220     4.949950     4.942690     4.935450     4.928230     4.921020     4.913830     4.906660     4.899500   -0.053790   -0.053741   -0.053717   -0.053675   -0.053617   -0.053543   -0.053444   -0.053313   -0.053141   -0.052913   -0.052614   -0.052222   -0.051709   -0.051040   -0.050174   -0.049051   -0.047615   -0.045802   -0.043547   -0.040796   -0.037575  -0.029357  -0.020678  -0.017596
  -398.0         X    0.056065    0.055987    0.055908   0.055830   0.055752     5.054820     5.047400     5.039970     5.032560     5.025160     5.017780     5.010410     5.003060     4.995730     4.988410     4.981110     4.973830     4.966560     4.959310     4.952070   -0.054369   -0.054320   -0.054295   -0.054253   -0.054194   -0.054119   -0.054019   -0.053886   -0.053713   -0.053483   -0.053180   -0.052784   -0.052265   -0.051590   -0.050714   -0.049579   -0.048127   -0.046295   -0.044016   -0.041235   -0.037979  -0.029672  -0.020900  -0.017785
  -396.0         X    0.056668    0.056589    0.056509   0.056430   0.056351     5.109210     5.101720     5.094200     5.086710     5.079230     5.071770     5.064320     5.056890     5.049480     5.042090     5.034710     5.027350     5.020000     5.012670     5.005360   -0.054956   -0.054906   -0.054881   -0.054838   -0.054779   -0.054703   -0.054602   -0.054468   -0.054293   -0.054060   -0.053754   -0.053354   -0.052829   -0.052146   -0.051261   -0.050114   -0.048646   -0.046794   -0.044490   -0.041680   -0.038388  -0.029991  -0.021125  -0.017976
  -394.0         X    0.057279    0.057199    0.057119   0.057039   0.056959     5.164340     5.156770     5.149180     5.141600     5.134040     5.126500     5.118970     5.111460     5.103970     5.096500     5.089040     5.081600     5.074170     5.066760     5.059370   -0.055551   -0.055501   -0.055475   -0.055432   -0.055372   -0.055296   -0.055193   -0.055058   -0.054880   -0.054645   -0.054336   -0.053931   -0.053401   -0.052711   -0.051816   -0.050656   -0.049172   -0.047301   -0.044971   -0.042130   -0.038803  -0.030315  -0.021352  -0.018170
  -392.0         X    0.057898    0.057817    0.057736   0.057655   0.057575     5.220230     5.212580     5.204900     5.197240     5.189600     5.181980     5.174370     5.166780     5.159210     5.151650     5.144110     5.136590     5.129080     5.121590     5.114120   -0.056154   -0.056103   -0.056077   -0.056034   -0.055974   -0.055896   -0.055793   -0.055655   -0.055476   -0.055238   -0.054926   -0.054517   -0.053981   -0.053283   -0.052378   -0.051206   -0.049706   -0.047814   -0.045459   -0.042587   -0.039224  -0.030644  -0.021583  -0.018366
  -390.0         X    0.058526    0.058444    0.058362   0.058281   0.058199     5.276890     5.269150     5.261390     5.253650     5.245920     5.238220     5.230530     5.222850     5.215200     5.207560     5.199940     5.192330     5.184750     5.177170     5.169620   -0.056766   -0.056714   -0.056688   -0.056644   -0.056583   -0.056504   -0.056400   -0.056261   -0.056080   -0.055840   -0.055524   -0.055110   -0.054568   -0.053863   -0.052948   -0.051763   -0.050247   -0.048334   -0.045954   -0.043050   -0.039650  -0.030976  -0.021818  -0.018565
  -388.0         X    0.059162    0.059080    0.058997   0.058914   0.058832     5.334320     5.326500     5.318650     5.310830     5.303020     5.295230     5.287450     5.279700     5.271960     5.264240     5.256530     5.248840     5.241170     5.233520     5.225880   -0.057386   -0.057333   -0.057307   -0.057263   -0.057201   -0.057121   -0.057016   -0.056876   -0.056692   -0.056449   -0.056130   -0.055712   -0.055164   -0.054451   -0.053526   -0.052328   -0.050795   -0.048861   -0.046455   -0.043520   -0.040082  -0.031314  -0.022055  -0.018767
  -386.0         X    0.059808    0.059724    0.059640   0.059557   0.059473     5.392540     5.384630     5.376710     5.368790     5.360900     5.353020     5.345170     5.337320     5.329500     5.321690     5.313910     5.306130     5.298380     5.290640     5.282920   -0.058014   -0.057961   -0.057934   -0.057890   -0.057827   -0.057747   -0.057640   -0.057499   -0.057313   -0.057068   -0.056745   -0.056322   -0.055768   -0.055047   -0.054112   -0.052901   -0.051351   -0.049396   -0.046963   -0.043996   -0.040521  -0.031656  -0.022295  -0.018972
  -384.0         X    0.060462    0.060377    0.060292   0.060208   0.060124     5.451570     5.443580     5.435560     5.427560     5.419580     5.411620     5.403670     5.395750     5.387840     5.379950     5.372070     5.364220     5.356380     5.348560     5.340750   -0.058651   -0.058598   -0.058571   -0.058526   -0.058462   -0.058381   -0.058273   -0.058130   -0.057943   -0.057694   -0.057368   -0.056941   -0.056381   -0.055652   -0.054706   -0.053482   -0.051915   -0.049938   -0.047479   -0.044479   -0.040965  -0.032003  -0.022539  -0.019179
  -382.0         X    0.061125    0.061039    0.060954   0.060868   0.060783     5.511420     5.503330     5.495230     5.487140     5.479080     5.471030     5.462990     5.454980     5.446980     5.439000     5.431040     5.423100     5.415180     5.407270     5.399380   -0.059297   -0.059243   -0.059216   -0.059170   -0.059106   -0.059024   -0.058915   -0.058770   -0.058581   -0.058330   -0.058000   -0.057568   -0.057001   -0.056264   -0.055309   -0.054071   -0.052487   -0.050488   -0.048001   -0.044968   -0.041415  -0.032354  -0.022787  -0.019390
  -380.0         X    0.061797    0.061710    0.061624   0.061538   0.061452     5.572090     5.563920     5.555730     5.547550     5.539390     5.531260     5.523140     5.515030     5.506950     5.498880     5.490830     5.482800     5.474790     5.466800     5.458820   -0.059952   -0.059898   -0.059870   -0.059824   -0.059759   -0.059676   -0.059566   -0.059420   -0.059228   -0.058974   -0.058641   -0.058204   -0.057631   -0.056886   -0.055919   -0.054668   -0.053066   -0.051045   -0.048531   -0.045464   -0.041872  -0.032711  -0.023037  -0.019603
  -378.0         X    0.062479    0.062391    0.062304   0.062217   0.062129     5.633610     5.625350     5.617070     5.608800     5.600550     5.592320     5.584110     5.575920     5.567750     5.559590     5.551460     5.543340     5.535240     5.527150     5.519090   -0.060617   -0.060561   -0.060533   -0.060487   -0.060421   -0.060338   -0.060226   -0.060078   -0.059884   -0.059627   -0.059291   -0.058848   -0.058269   -0.057516   -0.056539   -0.055273   -0.053654   -0.051610   -0.049068   -0.045967   -0.042335  -0.033072  -0.023292  -0.019819
  -376.0         X    0.063170    0.063081    0.062993   0.062905   0.062817     5.695990     5.687640     5.679260     5.670900     5.662570     5.654250     5.645940     5.637660     5.629400     5.621150     5.612920     5.604720     5.596520     5.588350     5.580200   -0.061290   -0.061234   -0.061206   -0.061159   -0.061093   -0.061008   -0.060895   -0.060745   -0.060550   -0.060290   -0.059949   -0.059502   -0.058917   -0.058155   -0.057167   -0.055887   -0.054250   -0.052184   -0.049613   -0.046477   -0.042805  -0.033439  -0.023550  -0.020039
  -374.0         X    0.063870    0.063781    0.063692   0.063603   0.063514     5.759240     5.750800     5.742330     5.733880     5.725440     5.717030     5.708640     5.700260     5.691910     5.683570     5.675250     5.666950     5.658670     5.650410     5.642160   -0.061973   -0.061917   -0.061888   -0.061840   -0.061774   -0.061688   -0.061574   -0.061422   -0.061224   -0.060962   -0.060617   -0.060165   -0.059573   -0.058803   -0.057804   -0.056509   -0.054854   -0.052765   -0.050165   -0.046995   -0.043281  -0.033810  -0.023811  -0.020261
  -372.0         X    0.064581    0.064491    0.064400   0.064310   0.064220     5.823380     5.814840     5.806280     5.797730     5.789210     5.780700     5.772210     5.763740     5.755290     5.746860     5.738450     5.730060     5.721690     5.713330     5.704990   -0.062666   -0.062609   -0.062580   -0.062531   -0.062464   -0.062377   -0.062262   -0.062109   -0.061909   -0.061643   -0.061295   -0.060838   -0.060239   -0.059460   -0.058450   -0.057141   -0.055467   -0.053354   -0.050725   -0.047519   -0.043764  -0.034187  -0.024076  -0.020486
  -370.0         X    0.065301    0.065210    0.065119   0.065028   0.064937     5.888420     5.879780     5.871120     5.862480     5.853860     5.845260     5.836680     5.828120     5.819570     5.811050     5.802540     5.794050     5.785590     5.777140     5.768710   -0.063368   -0.063311   -0.063281   -0.063232   -0.063164   -0.063076   -0.062960   -0.062805   -0.062603   -0.062334   -0.061982   -0.061519   -0.060914   -0.060126   -0.059104   -0.057781   -0.056088   -0.053951   -0.051294   -0.048051   -0.044254  -0.034570  -0.024345  -0.020715
  -368.0         X    0.066032    0.065940    0.065847   0.065755   0.065663     5.954370     5.945640     5.936880     5.928150     5.919430     5.910730     5.902050     5.893390     5.884750     5.876130     5.867530     5.858950     5.850390     5.841840     5.833320   -0.064081   -0.064022   -0.063993   -0.063943   -0.063874   -0.063786   -0.063668   -0.063511   -0.063306   -0.063035   -0.062678   -0.062211   -0.061599   -0.060802   -0.059769   -0.058430   -0.056718   -0.054558   -0.051870   -0.048591   -0.044751  -0.034957  -0.024617  -0.020947
  -366.0         X    0.066773    0.066680    0.066586   0.066493   0.066400     6.021260     6.012430     6.003570     5.994740     5.985920     5.977130     5.968350     5.959600     5.950860     5.942140     5.933440     5.924760     5.916110     5.907470     5.898840   -0.064803   -0.064744   -0.064714   -0.064664   -0.064594   -0.064505   -0.064385   -0.064227   -0.064020   -0.063745   -0.063385   -0.062912   -0.062293   -0.061487   -0.060442   -0.059089   -0.057357   -0.055172   -0.052454   -0.049138   -0.045255  -0.035350  -0.024894  -0.021182
  -364.0         X    0.067525    0.067430    0.067336   0.067241   0.067147     6.089090     6.080160     6.071210     6.062270     6.053360     6.044460     6.035590     6.026730     6.017900     6.009080     6.000290     5.991510     5.982750     5.974020     5.965300   -0.065536   -0.065476   -0.065446   -0.065395   -0.065325   -0.065234   -0.065114   -0.064953   -0.064744   -0.064466   -0.064102   -0.063624   -0.062997   -0.062183   -0.061126   -0.059757   -0.058006   -0.055796   -0.053047   -0.049693   -0.045765  -0.035749  -0.025174  -0.021420
  -362.0         X    0.068287    0.068191    0.068096   0.068000   0.067905     6.157890     6.148860     6.139800     6.130770     6.121750     6.112760     6.103780     6.094830     6.085890     6.076970     6.068080     6.059200     6.050350     6.041510     6.032690   -0.066279   -0.066219   -0.066188   -0.066137   -0.066066   -0.065974   -0.065852   -0.065690   -0.065478   -0.065197   -0.064829   -0.064345   -0.063712   -0.062888   -0.061819   -0.060434   -0.058663   -0.056428   -0.053648   -0.050256   -0.046284  -0.036153  -0.025459  -0.021662
  -360.0         X    0.069060    0.068963    0.068866   0.068770   0.068674     6.227670     6.218530     6.209370     6.200240     6.191120     6.182020     6.172940     6.163890     6.154850     6.145830     6.136840     6.127860     6.118900     6.109970     6.101050   -0.067033   -0.066972   -0.066941   -0.066889   -0.066817   -0.066725   -0.066601   -0.066437   -0.066223   -0.065939   -0.065566   -0.065077   -0.064436   -0.063603   -0.062522   -0.061121   -0.059330   -0.057069   -0.054257   -0.050827   -0.046809  -0.036563  -0.025747  -0.021907
  -358.0         X    0.069844    0.069746    0.069648   0.069551   0.069454     6.298440     6.289200     6.279940     6.270690     6.261470     6.252270     6.243090     6.233930     6.224790     6.215670     6.206570     6.197490     6.188440     6.179400     6.170380   -0.067798   -0.067736   -0.067705   -0.067653   -0.067580   -0.067486   -0.067361   -0.067195   -0.066978   -0.066691   -0.066314   -0.065819   -0.065171   -0.064328   -0.063235   -0.061818   -0.060006   -0.057720   -0.054876   -0.051406   -0.047342  -0.036979  -0.026040  -0.022156
  -356.0         X    0.070639    0.070540    0.070441   0.070343   0.070244     6.370220     6.360880     6.351510     6.342160     6.332830     6.323530     6.314240     6.304980     6.295730     6.286510     6.277310     6.268130     6.258960     6.249820     6.240700   -0.068574   -0.068511   -0.068479   -0.068427   -0.068353   -0.068258   -0.068132   -0.067964   -0.067745   -0.067454   -0.067073   -0.066572   -0.065917   -0.065064   -0.063958   -0.062525   -0.060693   -0.058380   -0.055503   -0.051993   -0.047883  -0.037401  -0.026336  -0.022409
  -354.0         X    0.071445    0.071345    0.071246   0.071146   0.071046     6.443040     6.433580     6.424110     6.414650     6.405220     6.395810     6.386420     6.377040     6.367700     6.358370     6.349060     6.339770     6.330500     6.321260     6.312030   -0.069361   -0.069297   -0.069265   -0.069212   -0.069137   -0.069041   -0.068914   -0.068744   -0.068522   -0.068228   -0.067842   -0.067336   -0.066673   -0.065811   -0.064692   -0.063243   -0.061389   -0.059049   -0.056139   -0.052589   -0.048432  -0.037829  -0.026637  -0.022665
  -352.0         X    0.072264    0.072162    0.072061   0.071960   0.071860     6.516900     6.507340     6.497750     6.488190     6.478650     6.469120     6.459630     6.450150     6.440690     6.431250     6.421840     6.412450     6.403070     6.393720     6.384390   -0.070159   -0.070095   -0.070063   -0.070009   -0.069933   -0.069836   -0.069707   -0.069535   -0.069311   -0.069013   -0.068623   -0.068111   -0.067441   -0.066568   -0.065436   -0.063970   -0.062095   -0.059729   -0.056785   -0.053193   -0.048988  -0.038263  -0.026942  -0.022924
  -350.0         X    0.073094    0.072991    0.072889   0.072787   0.072685     6.591820     6.582150     6.572460     6.562780     6.553130     6.543500     6.533890     6.524300     6.514740     6.505190     6.495670     6.486170     6.476690     6.467230     6.457790   -0.070969   -0.070904   -0.070872   -0.070817   -0.070740   -0.070642   -0.070512   -0.070338   -0.070111   -0.069810   -0.069415   -0.068898   -0.068219   -0.067336   -0.066191   -0.064708   -0.062811   -0.060418   -0.057439   -0.053807   -0.049553  -0.038704  -0.027252  -0.023187
  -348.0         X    0.073935    0.073832    0.073729   0.073625   0.073522     6.667830     6.658050     6.648240     6.638450     6.628690     6.618950     6.609230     6.599530     6.589850     6.580200     6.570570     6.560950     6.551360     6.541800     6.532250   -0.071791   -0.071725   -0.071692   -0.071637   -0.071559   -0.071460   -0.071328   -0.071152   -0.070923   -0.070618   -0.070219   -0.069695   -0.069009   -0.068116   -0.066958   -0.065457   -0.063538   -0.061117   -0.058104   -0.054429   -0.050125  -0.039150  -0.027566  -0.023455
  -346.0         X    0.074789    0.074685    0.074580   0.074476   0.074372     6.744940     6.735040     6.725120     6.715220     6.705350     6.695490     6.685660     6.675850     6.666060     6.656290     6.646550     6.636830     6.627120     6.617440     6.607790   -0.072624   -0.072558   -0.072525   -0.072469   -0.072390   -0.072290   -0.072156   -0.071979   -0.071746   -0.071438   -0.071034   -0.070504   -0.069810   -0.068907   -0.067735   -0.066217   -0.064276   -0.061826   -0.058778   -0.055060   -0.050707  -0.039604  -0.027885  -0.023726
  -344.0         X    0.075656    0.075550    0.075444   0.075339   0.075233     6.823160     6.813160     6.803120     6.793110     6.783110     6.773150     6.763200     6.753270     6.743370     6.733490     6.723630     6.713800     6.703980     6.694190     6.684420   -0.073470   -0.073403   -0.073370   -0.073313   -0.073234   -0.073132   -0.072997   -0.072817   -0.072582   -0.072271   -0.071862   -0.071326   -0.070623   -0.069709   -0.068524   -0.066988   -0.065024   -0.062545   -0.059462   -0.055701   -0.051296  -0.040064  -0.028208  -0.024001
  -342.0         X    0.076535    0.076428    0.076321   0.076214   0.076107     6.902530     6.892410     6.882250     6.872120     6.862010     6.851930     6.841870     6.831830     6.821810     6.811810     6.801840     6.791890     6.781960     6.772060     6.762170   -0.074329   -0.074261   -0.074227   -0.074169   -0.074089   -0.073986   -0.073849   -0.073668   -0.073430   -0.073115   -0.072701   -0.072159   -0.071448   -0.070523   -0.069324   -0.067770   -0.065783   -0.063275   -0.060156   -0.056350   -0.051894  -0.040530  -0.028536  -0.024280
  -340.0         X    0.077427    0.077318    0.077210   0.077102   0.076994     6.983060     6.972810     6.962540     6.952290     6.942070     6.931860     6.921680     6.911530     6.901390     6.891280     6.881190     6.871120     6.861080     6.851060     6.841060   -0.075200   -0.075131   -0.075096   -0.075038   -0.074957   -0.074853   -0.074715   -0.074531   -0.074290   -0.073971   -0.073553   -0.073004   -0.072285   -0.071349   -0.070136   -0.068564   -0.066554   -0.064016   -0.060860   -0.057010   -0.052501  -0.041004  -0.028869  -0.024563
  -338.0         X    0.078332    0.078222    0.078113   0.078003   0.077894     7.064760     7.054400     7.044010     7.033640     7.023290     7.012970     7.002670     6.992390     6.982140     6.971910     6.961700     6.951520     6.941360     6.931220     6.921100   -0.076084   -0.076014   -0.075979   -0.075920   -0.075838   -0.075733   -0.075593   -0.075407   -0.075163   -0.074841   -0.074417   -0.073862   -0.073135   -0.072188   -0.070960   -0.069370   -0.067335   -0.064768   -0.061574   -0.057679   -0.053117  -0.041484  -0.029207  -0.024850
  -336.0         X    0.079250    0.079139    0.079028   0.078918   0.078807     7.147670     7.137180     7.126670     7.116180     7.105710     7.095260     7.084840     7.074450     7.064070     7.053720     7.043400     7.033090     7.022810     7.012550     7.002310   -0.076981   -0.076910   -0.076875   -0.076815   -0.076732   -0.076626   -0.076484   -0.076296   -0.076050   -0.075723   -0.075295   -0.074733   -0.073997   -0.073039   -0.071796   -0.070187   -0.068128   -0.065531   -0.062300   -0.058358   -0.053742  -0.041972  -0.029550  -0.025141
