Name:A X_Dim:60 Y_Dim:600 Conductance:100.0

### Channel Times ###
      Start      End
0   -1.9505  -1.9495
1   -1.8505  -1.8495
2   -1.7505  -1.7495
3   -1.6505  -1.6495
4   -1.5505  -1.5495
5   -1.4500  -1.4490
6   -1.3505  -1.3495
7   -1.2505  -1.2495
8   -1.1505  -1.1495
9   -1.0505  -1.0495
10  -0.9505  -0.9495
11  -0.8505  -0.8495
12  -0.7505  -0.7495
13  -0.6505  -0.6495
14  -0.5505  -0.5495
15  -0.4505  -0.4495
16  -0.3505  -0.3495
17  -0.2505  -0.2495
18  -0.1505  -0.1495
19  -0.0505  -0.0495
20   0.0250   0.0260
21   0.0545   0.0555
22   0.0695   0.0705
23   0.0945   0.0955
24   0.1295   0.1305
25   0.1745   0.1755
26   0.2345   0.2355
27   0.3145   0.3155
28   0.4195   0.4205
29   0.5595   0.5605
30   0.7445   0.7455
31   0.9895   0.9905
32   1.3145   1.3155
33   1.7445   1.7455
34   2.3145   2.3155
35   3.0745   3.0755
36   4.0845   4.0855
37   5.4245   5.4255
38   7.2045   7.2055
39   9.5695   9.5705
40  12.6595  12.6605
41  22.7295  22.7305
42  39.3945  39.3955
43  48.1145  48.1155

### Data ###
 Station Component             0             1             2             3             4           5           6           7           8           9          10          11          12          13         14         15         16         17         18         19         20         21         22         23         24         25         26         27         28         29         30        31        32        33        34        35        36            37            38            39            40            41            42            43
  -400.0         X  5.256580e-22  4.722600e-22  4.242870e-22  3.811880e-22  3.424680e-22    1.090110    0.944768    0.823876    0.722184    0.635554    0.561039    0.496468    0.440187    0.390907   0.347597   0.309421   0.275686   0.245818   0.219327   0.195799  -0.951757  -0.908990  -0.888305  -0.855298  -0.811928  -0.760528  -0.698628  -0.626019  -0.544669  -0.455362  -0.362380 -0.270423 -0.185399 -0.113757 -0.060150 -0.025953 -0.008563 -1.982040e-03 -2.861760e-04 -2.208020e-05 -7.846710e-07 -1.546810e-11 -2.691760e-19 -2.382690e-23
  -398.0         X  5.307140e-22  4.768030e-22  4.283680e-22  3.848550e-22  3.457620e-22    1.101490    0.954617    0.832449    0.729686    0.642145    0.566848    0.501600    0.444731    0.394937   0.351175   0.312602   0.278517   0.248339   0.221573   0.197802  -0.961741  -0.918521  -0.897616  -0.864259  -0.820430  -0.768485  -0.705930  -0.632552  -0.550342  -0.460094  -0.366134 -0.273215 -0.187305 -0.114920 -0.060762 -0.026216 -0.008649 -2.001820e-03 -2.890130e-04 -2.229760e-05 -7.923440e-07 -1.561760e-11 -2.717640e-19 -2.405610e-23
  -396.0         X  5.358350e-22  4.814030e-22  4.325010e-22  3.885680e-22  3.490980e-22    1.113040    0.964605    0.841143    0.737294    0.648828    0.572739    0.506805    0.449339    0.399022   0.354803   0.315827   0.281387   0.250895   0.223851   0.199834  -0.971867  -0.928187  -0.907060  -0.873348  -0.829052  -0.776555  -0.713334  -0.639178  -0.556096  -0.464892  -0.369941 -0.276045 -0.189237 -0.116100 -0.061382 -0.026482 -0.008736 -2.021870e-03 -2.918880e-04 -2.251780e-05 -8.001180e-07 -1.576900e-11 -2.743840e-19 -2.428820e-23
  -394.0         X  5.410200e-22  4.860620e-22  4.366870e-22  3.923280e-22  3.524760e-22    1.124750    0.974735    0.849961    0.745009    0.655606    0.578712    0.512082    0.454011    0.403165   0.358482   0.319097   0.284297   0.253486   0.226161   0.201893  -0.982138  -0.937991  -0.916638  -0.882566  -0.837797  -0.784739  -0.720845  -0.645897  -0.561931  -0.469759  -0.373802 -0.278916 -0.191197 -0.117296 -0.062011 -0.026752 -0.008824 -2.042190e-03 -2.948010e-04 -2.274100e-05 -8.079940e-07 -1.592230e-11 -2.770380e-19 -2.452320e-23
  -392.0         X  5.462730e-22  4.907810e-22  4.409260e-22  3.961370e-22  3.558980e-22    1.136630    0.985009    0.858903    0.752833    0.662480    0.584770    0.517434    0.458748    0.407366   0.362213   0.322413   0.287248   0.256114   0.228503   0.203981  -0.992557  -0.947936  -0.926354  -0.891916  -0.846668  -0.793041  -0.728462  -0.652712  -0.567849  -0.474694  -0.377717 -0.281826 -0.193183 -0.118509 -0.062649 -0.027025 -0.008914 -2.062790e-03 -2.977530e-04 -2.296710e-05 -8.159730e-07 -1.607770e-11 -2.797260e-19 -2.476130e-23
  -390.0         X  5.515920e-22  4.955600e-22  4.452200e-22  3.999940e-22  3.593630e-22    1.148670    0.995430    0.867973    0.760770    0.669452    0.590913    0.522862    0.463553    0.411627   0.365995   0.325776   0.290240   0.258779   0.230877   0.206099  -1.003120  -0.958024  -0.936210  -0.901401  -0.855666  -0.801462  -0.736188  -0.659625  -0.573851  -0.479700  -0.381688 -0.284778 -0.195198 -0.119739 -0.063295 -0.027302 -0.009005 -2.083670e-03 -3.007450e-04 -2.319630e-05 -8.240580e-07 -1.623500e-11 -2.824480e-19 -2.500240e-23
  -388.0         X  5.569800e-22  5.004000e-22  4.495690e-22  4.039010e-22  3.628730e-22    1.160890    1.006000    0.877174    0.768819    0.676523    0.597144    0.528366    0.468426    0.415948   0.369832   0.329186   0.293275   0.261481   0.233285   0.208246  -1.013850  -0.968257  -0.946207  -0.911023  -0.864793  -0.810004  -0.744026  -0.666637  -0.579940  -0.484777  -0.385716 -0.287772 -0.197241 -0.120986 -0.063951 -0.027583 -0.009097 -2.104830e-03 -3.037780e-04 -2.342850e-05 -8.322510e-07 -1.639440e-11 -2.852050e-19 -2.524660e-23
  -386.0         X  5.624380e-22  5.053040e-22  4.539740e-22  4.078590e-22  3.664290e-22    1.173290    1.016720    0.886506    0.776984    0.683695    0.603464    0.533949    0.473368    0.420330   0.373723   0.332645   0.296352   0.264221   0.235727   0.210423  -1.024720  -0.978639  -0.956350  -0.920784  -0.874053  -0.818670  -0.751977  -0.673751  -0.586116  -0.489927  -0.389801 -0.290809 -0.199313 -0.122250 -0.064616 -0.027868 -0.009190 -2.126280e-03 -3.068510e-04 -2.366380e-05 -8.405520e-07 -1.655590e-11 -2.879980e-19 -2.549390e-23
  -384.0         X  5.679660e-22  5.102700e-22  4.584360e-22  4.118680e-22  3.700300e-22    1.185870    1.027600    0.895973    0.785266    0.690970    0.609875    0.539613    0.478381    0.424774   0.377669   0.336153   0.299473   0.267000   0.238204   0.212631  -1.035760  -0.989172  -0.966640  -0.930687  -0.883447  -0.827461  -0.760043  -0.680967  -0.592382  -0.495151  -0.393944 -0.293888 -0.201415 -0.123533 -0.065290 -0.028157 -0.009285 -2.148020e-03 -3.099670e-04 -2.390230e-05 -8.489640e-07 -1.671950e-11 -2.908260e-19 -2.574440e-23
  -382.0         X  5.735660e-22  5.153010e-22  4.629560e-22  4.159280e-22  3.736780e-22    1.198630    1.038640    0.905577    0.793668    0.698350    0.616378    0.545357    0.483466    0.429283   0.381672   0.339711   0.302638   0.269819   0.240715   0.214871  -1.046950  -0.999859  -0.977081  -0.940734  -0.892978  -0.836381  -0.768226  -0.688288  -0.598738  -0.500451  -0.398148 -0.297012 -0.203546 -0.124834 -0.065973 -0.028450 -0.009381 -2.170060e-03 -3.131240e-04 -2.414400e-05 -8.574880e-07 -1.688520e-11 -2.936910e-19 -2.599810e-23
  -380.0         X  5.792390e-22  5.203980e-22  4.675340e-22  4.200420e-22  3.773740e-22    1.211570    1.049830    0.915320    0.802192    0.705837    0.622975    0.551184    0.488624    0.433856   0.385732   0.343319   0.305849   0.272678   0.243263   0.217142  -1.058310  -1.010700  -0.987674  -0.950929  -0.902649  -0.845431  -0.776529  -0.695715  -0.605187  -0.505827  -0.402412 -0.300181 -0.205708 -0.126153 -0.066666 -0.028747 -0.009478 -2.192410e-03 -3.163250e-04 -2.438900e-05 -8.661280e-07 -1.705320e-11 -2.965940e-19 -2.625510e-23
  -378.0         X  5.849860e-22  5.255610e-22  4.721730e-22  4.242090e-22  3.811180e-22    1.224710    1.061190    0.925206    0.810840    0.713433    0.629668    0.557096    0.493856    0.438495   0.389850   0.346980   0.309106   0.275578   0.245847   0.219446  -1.069840  -1.021710  -0.998423  -0.961273  -0.912461  -0.854613  -0.784954  -0.703252  -0.611729  -0.511282  -0.406738 -0.303396 -0.207901 -0.127491 -0.067369 -0.029049 -0.009577 -2.215070e-03 -3.195700e-04 -2.463730e-05 -8.748830e-07 -1.722330e-11 -2.995340e-19 -2.651540e-23
  -376.0         X  5.908080e-22  5.307920e-22  4.768720e-22  4.284310e-22  3.849110e-22    1.238030    1.072720    0.935236    0.819614    0.721139    0.636458    0.563094    0.499165    0.443201   0.394028   0.350694   0.312410   0.278519   0.248468   0.221783  -1.081540  -1.032870  -1.009330  -0.971771  -0.922419  -0.863932  -0.793503  -0.710899  -0.618368  -0.516817  -0.411127 -0.306657 -0.210126 -0.128848 -0.068083 -0.029354 -0.009677 -2.238040e-03 -3.228600e-04 -2.488900e-05 -8.837570e-07 -1.739570e-11 -3.025130e-19 -2.677920e-23
  -374.0         X  5.967070e-22  5.360910e-22  4.816330e-22  4.327080e-22  3.887540e-22    1.251560    1.084410    0.945414    0.828517    0.728959    0.643347    0.569178    0.504550    0.447975   0.398267   0.354461   0.315761   0.281504   0.251127   0.224153  -1.093410  -1.044200  -1.020400  -0.982423  -0.932524  -0.873388  -0.802178  -0.718659  -0.625105  -0.522432  -0.415580 -0.309966 -0.212383 -0.130225 -0.068806 -0.029664 -0.009778 -2.261330e-03 -3.261950e-04 -2.514420e-05 -8.927510e-07 -1.757040e-11 -3.055310e-19 -2.704640e-23
  -372.0         X  6.026830e-22  5.414600e-22  4.864570e-22  4.370420e-22  3.926470e-22    1.265280    1.096280    0.955742    0.837551    0.736893    0.650337    0.575353    0.510015    0.452819   0.402567   0.358283   0.319161   0.284531   0.253824   0.226558  -1.105460  -1.055700  -1.031640  -0.993235  -0.942779  -0.882984  -0.810982  -0.726534  -0.631941  -0.528131  -0.420099 -0.313323 -0.214673 -0.131621 -0.069539 -0.029978 -0.009881 -2.284950e-03 -3.295770e-04 -2.540290e-05 -9.018680e-07 -1.774740e-11 -3.085880e-19 -2.731710e-23
  -370.0         X  6.087390e-22  5.469000e-22  4.913440e-22  4.414330e-22  3.965920e-22    1.279210    1.108330    0.966223    0.846719    0.744944    0.657430    0.581617    0.515559    0.457735   0.406931   0.362161   0.322611   0.287602   0.256561   0.228998  -1.117690  -1.067370  -1.043040  -1.004210  -0.953187  -0.892723  -0.819916  -0.734525  -0.638878  -0.533914  -0.424684 -0.316729 -0.216996 -0.133038 -0.070284 -0.030297 -0.009985 -2.308900e-03 -3.330050e-04 -2.566510e-05 -9.111090e-07 -1.792680e-11 -3.116860e-19 -2.759130e-23
  -368.0         X  6.148740e-22  5.524130e-22  4.962970e-22  4.458820e-22  4.005890e-22    1.293350    1.120550    0.976860    0.856023    0.753114    0.664628    0.587974    0.521185    0.462722   0.411358   0.366095   0.326111   0.290719   0.259337   0.231473  -1.130100  -1.079220  -1.054610  -1.015340  -0.963752  -0.902609  -0.828984  -0.742637  -0.645918  -0.539782  -0.429336 -0.320186 -0.219353 -0.134476 -0.071039 -0.030620 -0.010091 -2.333190e-03 -3.364810e-04 -2.593100e-05 -9.204770e-07 -1.810860e-11 -3.148250e-19 -2.786920e-23
  -366.0         X  6.210920e-22  5.579980e-22  5.013150e-22  4.503900e-22  4.046390e-22    1.307700    1.132960    0.987656    0.865465    0.761406    0.671932    0.594426    0.526894    0.467783   0.415850   0.370088   0.329663   0.293881   0.262154   0.233984  -1.142700  -1.091250  -1.066360  -1.026650  -0.974475  -0.912642  -0.838189  -0.750869  -0.653064  -0.545738  -0.434058 -0.323694 -0.221745 -0.135934 -0.071804 -0.030948 -0.010198 -2.357830e-03 -3.400070e-04 -2.620050e-05 -9.299730e-07 -1.829290e-11 -3.180050e-19 -2.815070e-23
  -364.0         X  6.273920e-22  5.636580e-22  5.063990e-22  4.549580e-22  4.087430e-22    1.322260    1.145560    0.998613    0.875048    0.769822    0.679346    0.600973    0.532688    0.472919   0.420409   0.374139   0.333267   0.297089   0.265013   0.236532  -1.155490  -1.103450  -1.078290  -1.038120  -0.985359  -0.922827  -0.847532  -0.759225  -0.660317  -0.551783  -0.438851 -0.327253 -0.224172 -0.137414 -0.072582 -0.031281 -0.010307 -2.382810e-03 -3.435810e-04 -2.647380e-05 -9.396000e-07 -1.847960e-11 -3.212280e-19 -2.843590e-23
  -362.0         X  6.337760e-22  5.693940e-22  5.115520e-22  4.595870e-22  4.129020e-22    1.337050    1.158340    1.009740    0.884775    0.778363    0.686870    0.607617    0.538568    0.478131   0.425035   0.378250   0.336924   0.300345   0.267913   0.239118  -1.168480  -1.115850  -1.090390  -1.049770  -0.996409  -0.933167  -0.857016  -0.767708  -0.667679  -0.557919  -0.443715 -0.330866 -0.226635 -0.138916 -0.073370 -0.031619 -0.010418 -2.408150e-03 -3.472060e-04 -2.675100e-05 -9.493610e-07 -1.866890e-11 -3.244930e-19 -2.872500e-23
  -360.0         X  6.402460e-22  5.752060e-22  5.167740e-22  4.642790e-22  4.171170e-22    1.352060    1.171320    1.021030    0.894649    0.787033    0.694507    0.614362    0.544536    0.483421   0.429731   0.382423   0.340635   0.303649   0.270857   0.241742  -1.181660  -1.128430  -1.102680  -1.061600  -1.007630  -0.943663  -0.866644  -0.776319  -0.675153  -0.564147  -0.448652 -0.334532 -0.229135 -0.140440 -0.074170 -0.031961 -0.010530 -2.433850e-03 -3.508830e-04 -2.703200e-05 -9.592570e-07 -1.886070e-11 -3.278020e-19 -2.901790e-23
  -358.0         X  6.468030e-22  5.810970e-22  5.220670e-22  4.690330e-22  4.213880e-22    1.367300    1.184490    1.032490    0.904672    0.795834    0.702259    0.621207    0.550594    0.488790   0.434496   0.386657   0.344402   0.307002   0.273844   0.244405  -1.195040  -1.141200  -1.115160  -1.073610  -1.019020  -0.954320  -0.876419  -0.785061  -0.682740  -0.570470  -0.453663 -0.338254 -0.231672 -0.141986 -0.074982 -0.032308 -0.010644 -2.459920e-03 -3.546120e-04 -2.731690e-05 -9.692910e-07 -1.905520e-11 -3.311560e-19 -2.931470e-23
  -356.0         X  6.534480e-22  5.870670e-22  5.274300e-22  4.738520e-22  4.257170e-22    1.382770    1.197870    1.044120    0.914847    0.804768    0.710129    0.628156    0.556742    0.494240   0.439333   0.390956   0.348225   0.310405   0.276876   0.247107  -1.208630  -1.154170  -1.127830  -1.085800  -1.030580  -0.965140  -0.886343  -0.793936  -0.690442  -0.576888  -0.458750 -0.342032 -0.234246 -0.143556 -0.075805 -0.032661 -0.010759 -2.486360e-03 -3.583940e-04 -2.760590e-05 -9.794650e-07 -1.925230e-11 -3.345550e-19 -2.961550e-23
  -354.0         X  6.601840e-22  5.931180e-22  5.328660e-22  4.787360e-22  4.301050e-22    1.398480    1.211450    1.055940    0.925178    0.813838    0.718117    0.635211    0.562984    0.499772   0.444243   0.395318   0.352105   0.313860   0.279953   0.249850  -1.222430  -1.167340  -1.140700  -1.098180  -1.042320  -0.976126  -0.896420  -0.802948  -0.698262  -0.583405  -0.463915 -0.345866 -0.236860 -0.145149 -0.076642 -0.033019 -0.010876 -2.513190e-03 -3.622300e-04 -2.789900e-05 -9.897820e-07 -1.945210e-11 -3.380000e-19 -2.992030e-23
  -352.0         X  6.670110e-22  5.992510e-22  5.383760e-22  4.836860e-22  4.345520e-22    1.414430    1.225240    1.067930    0.935666    0.823047    0.726228    0.642372    0.569321    0.505388   0.449228   0.399747   0.356044   0.317366   0.283076   0.252634  -1.236450  -1.180720  -1.153760  -1.110750  -1.054250  -0.987282  -0.906653  -0.812098  -0.706203  -0.590021  -0.469158 -0.349760 -0.239513 -0.146766 -0.077490 -0.033382 -0.010995 -2.540410e-03 -3.661210e-04 -2.819630e-05 -1.000240e-06 -1.965470e-11 -3.414910e-19 -3.022920e-23
  -350.0         X  6.739300e-22  6.054680e-22  5.439610e-22  4.887030e-22  4.390590e-22    1.430620    1.239240    1.080110    0.946316    0.832397    0.734462    0.649643    0.575754    0.511089   0.454287   0.404243   0.360043   0.320925   0.286247   0.255460  -1.250680  -1.194300  -1.167030  -1.123520  -1.066360  -0.998611  -0.917043  -0.821389  -0.714266  -0.596739  -0.474481 -0.353712 -0.242207 -0.148407 -0.078351 -0.033750 -0.011115 -2.568020e-03 -3.700680e-04 -2.849770e-05 -1.010850e-06 -1.986010e-11 -3.450300e-19 -3.054230e-23
  -348.0         X  6.809440e-22  6.117690e-22  5.496220e-22  4.937890e-22  4.436290e-22    1.447070    1.253460    1.092480    0.957130    0.841890    0.742824    0.657025    0.582285    0.516877   0.459424   0.408807   0.364102   0.324539   0.289466   0.258329  -1.265130  -1.208090  -1.180510  -1.136490  -1.078650  -1.010120  -0.927596  -0.830825  -0.722453  -0.603560  -0.479887 -0.357725 -0.244941 -0.150073 -0.079225 -0.034124 -0.011237 -2.596040e-03 -3.740730e-04 -2.880360e-05 -1.021610e-06 -2.006830e-11 -3.486170e-19 -3.085970e-23
  -346.0         X  6.880550e-22  6.181570e-22  5.553610e-22  4.989450e-22  4.482600e-22    1.463780    1.267900    1.105040    0.968111    0.851531    0.751314    0.664521    0.588917    0.522754   0.464640   0.413441   0.368224   0.328207   0.292733   0.261241  -1.279810  -1.222100  -1.194190  -1.149660  -1.091140  -1.021800  -0.938313  -0.840408  -0.730768  -0.610487  -0.485376 -0.361799 -0.247717 -0.151764 -0.080112 -0.034504 -0.011361 -2.624460e-03 -3.781350e-04 -2.911380e-05 -1.032530e-06 -2.027940e-11 -3.522530e-19 -3.118130e-23
  -344.0         X  6.952630e-22  6.246320e-22  5.611780e-22  5.041710e-22  4.529560e-22    1.480750    1.282560    1.117790    0.979263    0.861321    0.759935    0.672133    0.595651    0.528722   0.469936   0.418146   0.372408   0.331931   0.296050   0.264198  -1.294720  -1.236340  -1.208090  -1.163030  -1.103830  -1.033670  -0.949198  -0.850141  -0.739213  -0.617522  -0.490949 -0.365936 -0.250536 -0.153481 -0.081013 -0.034889 -0.011487 -2.653310e-03 -3.822570e-04 -2.942840e-05 -1.043590e-06 -2.049350e-11 -3.559380e-19 -3.150740e-23
  -342.0         X  7.025700e-22  6.311970e-22  5.670760e-22  5.094690e-22  4.577160e-22    1.497980    1.297460    1.130750    0.990590    0.871263    0.768690    0.679862    0.602489    0.534782   0.475313   0.422924   0.376657   0.335713   0.299419   0.267200  -1.309870  -1.250790  -1.222220  -1.176620  -1.116710  -1.045730  -0.960254  -0.860026  -0.747790  -0.624667  -0.496610 -0.370138 -0.253398 -0.155224 -0.081927 -0.035280 -0.011615 -2.682580e-03 -3.864390e-04 -2.974760e-05 -1.054820e-06 -2.071050e-11 -3.596750e-19 -3.183790e-23
  -340.0         X  7.099780e-22  6.378520e-22  5.730550e-22  5.148410e-22  4.625410e-22    1.515490    1.312590    1.143910    1.002090    0.881361    0.777583    0.687713    0.609433    0.540935   0.480774   0.427775   0.380971   0.339553   0.302839   0.270248  -1.325260  -1.265480  -1.236560  -1.190420  -1.129810  -1.057970  -0.971485  -0.870068  -0.756501  -0.631924  -0.502359 -0.374404 -0.256304 -0.156995 -0.082855 -0.035677 -0.011744 -2.712290e-03 -3.906820e-04 -3.007150e-05 -1.066210e-06 -2.093060e-11 -3.634620e-19 -3.217300e-23
  -338.0         X  7.174890e-22  6.446000e-22  5.791170e-22  5.202870e-22  4.674340e-22    1.533270    1.327960    1.157270    1.013780    0.891617    0.786614    0.695685    0.616486    0.547185   0.486319   0.432701   0.385352   0.343452   0.306311   0.273343  -1.340890  -1.280400  -1.251130  -1.204450  -1.143100  -1.070410  -0.982894  -0.880268  -0.765351  -0.639295  -0.508198 -0.378737 -0.259255 -0.158792 -0.083798 -0.036080 -0.011876 -2.742430e-03 -3.949880e-04 -3.040010e-05 -1.077760e-06 -2.115380e-11 -3.673030e-19 -3.251260e-23
  -336.0         X  7.251040e-22  6.514410e-22  5.852630e-22  5.258080e-22  4.723940e-22    1.551340    1.343570    1.170850    1.025650    0.902036    0.795787    0.703783    0.623650    0.553532   0.491951   0.437705   0.389801   0.347411   0.309838   0.276485  -1.356780  -1.295550  -1.265940  -1.218690  -1.156610  -1.083050  -0.994485  -0.890631  -0.774340  -0.646783  -0.514129 -0.383138 -0.262253 -0.160617 -0.084755 -0.036489 -0.012010 -2.773030e-03 -3.993570e-04 -3.073340e-05 -1.089480e-06 -2.138020e-11 -3.711960e-19 -3.285690e-23
  -334.0         X  7.328250e-22  6.583780e-22  5.914950e-22  5.314070e-22  4.774240e-22    1.569690    1.359440    1.184640    1.037710    0.912619    0.805106    0.712009    0.630926    0.559979   0.497672   0.442786   0.394319   0.351433   0.313419   0.279677  -1.372920  -1.310960  -1.280990  -1.233170  -1.170340  -1.095890  -1.006260  -0.901159  -0.783473  -0.654389  -0.520154 -0.387609 -0.265297 -0.162470 -0.085726 -0.036904 -0.012145 -2.804090e-03 -4.037920e-04 -3.107170e-05 -1.101370e-06 -2.160970e-11 -3.751440e-19 -3.320600e-23
