Name:B X_Dim:60 Y_Dim:600 Conductance:1000.0

### Channel Times ###
      Start      End
0   -1.9505  -1.9495
1   -1.8505  -1.8495
2   -1.7505  -1.7495
3   -1.6505  -1.6495
4   -1.5505  -1.5495
5   -1.4500  -1.4490
6   -1.3505  -1.3495
7   -1.2505  -1.2495
8   -1.1505  -1.1495
9   -1.0505  -1.0495
10  -0.9505  -0.9495
11  -0.8505  -0.8495
12  -0.7505  -0.7495
13  -0.6505  -0.6495
14  -0.5505  -0.5495
15  -0.4505  -0.4495
16  -0.3505  -0.3495
17  -0.2505  -0.2495
18  -0.1505  -0.1495
19  -0.0505  -0.0495
20   0.0250   0.0260
21   0.0545   0.0555
22   0.0695   0.0705
23   0.0945   0.0955
24   0.1295   0.1305
25   0.1745   0.1755
26   0.2345   0.2355
27   0.3145   0.3155
28   0.4195   0.4205
29   0.5595   0.5605
30   0.7445   0.7455
31   0.9895   0.9905
32   1.3145   1.3155
33   1.7445   1.7455
34   2.3145   2.3155
35   3.0745   3.0755
36   4.0845   4.0855
37   5.4245   5.4255
38   7.2045   7.2055
39   9.5695   9.5705
40  12.6595  12.6605
41  22.7295  22.7305
42  39.3945  39.3955
43  48.1145  48.1155

### Data ###
 Station Component             0             1             2             3             4           5           6           7           8           9          10          11          12          13          14          15          16          17          18          19         20         21         22         23         24         25         26         27         28         29         30        31        32        33        34        35        36        37        38        39        40        41        42            43
  -400.0         X  7.695040e-04  7.611340e-04  7.528550e-04  7.446660e-04  7.365670e-04    1.167860    1.150330    1.133100    1.116240    1.099730    1.083570    1.067750    1.052250    1.037070    1.022190    1.007600    0.993304    0.979283    0.965530    0.952040  -0.229576  -0.228187  -0.227486  -0.226324  -0.224714  -0.222670  -0.219989  -0.216493  -0.212032  -0.206303  -0.199092 -0.190123 -0.179144 -0.166028 -0.150733 -0.133336 -0.114299 -0.094298 -0.074155 -0.054861 -0.037718 -0.011887 -0.001878 -7.223710e-04
  -398.0         X  7.772280e-04  7.687730e-04  7.604110e-04  7.521390e-04  7.439590e-04    1.180070    1.162360    1.144940    1.127900    1.111220    1.094890    1.078900    1.063240    1.047890    1.032850    1.018120    1.003670    0.989496    0.975598    0.961965  -0.232002  -0.230598  -0.229890  -0.228716  -0.227089  -0.225023  -0.222314  -0.218780  -0.214272  -0.208483  -0.201195 -0.192130 -0.181034 -0.167779 -0.152321 -0.134738 -0.115499 -0.095286 -0.074929 -0.055431 -0.038108 -0.012008 -0.001897 -7.296210e-04
  -396.0         X  7.850560e-04  7.765160e-04  7.680690e-04  7.597140e-04  7.514500e-04    1.192450    1.174550    1.156950    1.139720    1.122870    1.106360    1.090200    1.074380    1.058870    1.043670    1.028780    1.014170    0.999853    0.985808    0.972031  -0.234463  -0.233044  -0.232328  -0.231142  -0.229498  -0.227410  -0.224672  -0.221100  -0.216544  -0.210693  -0.203327 -0.194166 -0.182952 -0.169555 -0.153931 -0.136161 -0.116717 -0.096288 -0.075714 -0.056010 -0.038504 -0.012131 -0.001916 -7.369690e-04
  -394.0         X  7.929910e-04  7.843640e-04  7.758310e-04  7.673910e-04  7.590430e-04    1.205000    1.186910    1.169120    1.151720    1.134680    1.118000    1.101670    1.085670    1.070000    1.054640    1.039590    1.024830    1.010360    0.996163    0.982239  -0.236959  -0.235526  -0.234802  -0.233603  -0.231941  -0.229831  -0.227064  -0.223454  -0.218849  -0.212935  -0.205490 -0.196231 -0.184897 -0.171356 -0.155565 -0.137605 -0.117951 -0.097304 -0.076511 -0.056596 -0.038906 -0.012256 -0.001936 -7.444160e-04
  -392.0         X  8.010330e-04  7.923180e-04  7.836980e-04  7.751730e-04  7.667400e-04    1.217740    1.199450    1.181470    1.163880    1.146660    1.129810    1.113300    1.097130    1.081290    1.065770    1.050550    1.035640    1.021010    1.006670    0.992593  -0.239492  -0.238043  -0.237311  -0.236100  -0.234420  -0.232287  -0.229490  -0.225841  -0.221187  -0.215210  -0.207685 -0.198326 -0.186870 -0.173184 -0.157223 -0.139069 -0.119204 -0.098335 -0.077318 -0.057191 -0.039313 -0.012383 -0.001956 -7.519650e-04
  -390.0         X  8.091860e-04  8.003820e-04  7.916740e-04  7.830610e-04  7.745420e-04    1.230650    1.212170    1.194000    1.176220    1.158820    1.141780    1.125100    1.108760    1.092750    1.077060    1.061680    1.046600    1.031820    1.017320    1.003090  -0.242062  -0.240597  -0.239857  -0.238633  -0.236935  -0.234779  -0.231952  -0.228264  -0.223559  -0.217517  -0.209911 -0.200451 -0.188871 -0.175038 -0.158904 -0.140554 -0.120475 -0.099380 -0.078138 -0.057795 -0.039725 -0.012511 -0.001976 -7.596170e-04
  -388.0         X  8.174500e-04  8.085560e-04  7.997580e-04  7.910570e-04  7.824510e-04    1.243760    1.225080    1.206710    1.188740    1.171150    1.153930    1.137060    1.120550    1.104360    1.088500    1.072960    1.057720    1.042780    1.028120    1.013750  -0.244668  -0.243188  -0.242440  -0.241203  -0.239486  -0.237307  -0.234449  -0.230721  -0.225966  -0.219858  -0.212170 -0.202607 -0.190902 -0.176918 -0.160610 -0.142061 -0.121764 -0.100441 -0.078969 -0.058407 -0.040144 -0.012641 -0.001996 -7.673740e-04
  -386.0         X  8.258280e-04  8.168420e-04  8.079540e-04  7.991630e-04  7.904680e-04    1.257050    1.238170    1.219600    1.201430    1.183650    1.166250    1.149200    1.132500    1.116150    1.100120    1.084410    1.069000    1.053900    1.039090    1.024550  -0.247314  -0.245817  -0.245061  -0.243810  -0.242075  -0.239872  -0.236983  -0.233215  -0.228408  -0.222234  -0.214462 -0.204795 -0.192963 -0.178827 -0.162340 -0.143589 -0.123072 -0.101517 -0.079812 -0.059028 -0.040569 -0.012774 -0.002016 -7.752380e-04
  -384.0         X  8.343220e-04  8.252430e-04  8.162630e-04  8.073810e-04  7.985970e-04    1.270530    1.251450    1.232680    1.214320    1.196340    1.178750    1.161520    1.144640    1.128100    1.111900    1.096020    1.080450    1.065180    1.050210    1.035520  -0.249997  -0.248484  -0.247721  -0.246456  -0.244701  -0.242475  -0.239554  -0.235745  -0.230886  -0.224644  -0.216787 -0.207015 -0.195053 -0.180763 -0.164096 -0.145140 -0.124398 -0.102608 -0.080667 -0.059658 -0.041000 -0.012907 -0.002037 -7.832100e-04
  -382.0         X  8.429340e-04  8.337610e-04  8.246870e-04  8.157130e-04  8.068370e-04    1.284220    1.264920    1.245950    1.227380    1.209210    1.191430    1.174010    1.156950    1.140230    1.123850    1.107800    1.092060    1.076620    1.061490    1.046640  -0.252721  -0.251191  -0.250419  -0.249140  -0.247367  -0.245116  -0.242163  -0.238312  -0.233400  -0.227090  -0.219147 -0.209268 -0.197175 -0.182727 -0.165878 -0.146714 -0.125745 -0.103716 -0.081535 -0.060297 -0.041437 -0.013043 -0.002058 -7.912930e-04
  -380.0         X  8.516650e-04  8.423960e-04  8.332290e-04  8.241610e-04  8.151930e-04    1.298100    1.278590    1.259410    1.240640    1.222270    1.204290    1.186680    1.169440    1.152540    1.135980    1.119750    1.103840    1.088230    1.072930    1.057920  -0.255485  -0.253938  -0.253158  -0.251865  -0.250072  -0.247796  -0.244811  -0.240917  -0.235951  -0.229572  -0.221542 -0.211553 -0.199327 -0.184721 -0.167686 -0.148311 -0.127111 -0.104840 -0.082415 -0.060945 -0.041880 -0.013181 -0.002080 -7.994880e-04
  -378.0         X  8.605180e-04  8.511530e-04  8.418890e-04  8.327270e-04  8.236650e-04    1.312180    1.292460    1.273070    1.254100    1.235530    1.217350    1.199540    1.182110    1.165020    1.148280    1.131880    1.115790    1.100020    1.084540    1.069370  -0.258289  -0.256726  -0.255937  -0.254630  -0.252817  -0.250516  -0.247498  -0.243561  -0.238540  -0.232091  -0.223972 -0.213873 -0.201512 -0.186744 -0.169521 -0.149931 -0.128497 -0.105980 -0.083309 -0.061603 -0.042329 -0.013321 -0.002102 -8.077980e-04
  -376.0         X  8.694950e-04  8.600320e-04  8.506710e-04  8.414130e-04  8.322560e-04    1.326470    1.306530    1.286930    1.267750    1.248970    1.230590    1.212600    1.194970    1.177690    1.160770    1.144180    1.127920    1.111970    1.096330    1.080980  -0.261136  -0.259555  -0.258757  -0.257436  -0.255603  -0.253276  -0.250225  -0.246245  -0.241168  -0.234647  -0.226438 -0.216227 -0.203729 -0.188797 -0.171383 -0.151576 -0.129903 -0.107137 -0.084215 -0.062270 -0.042786 -0.013462 -0.002124 -8.162240e-04
  -374.0         X  8.785990e-04  8.690350e-04  8.595760e-04  8.502210e-04  8.409670e-04    1.340980    1.320820    1.301000    1.281600    1.262620    1.244040    1.225840    1.208010    1.190550    1.173440    1.156670    1.140220    1.124100    1.108280    1.092770  -0.264025  -0.262427  -0.261620  -0.260284  -0.258431  -0.256078  -0.252993  -0.248969  -0.243835  -0.237242  -0.228941 -0.218617 -0.205979 -0.190881 -0.173273 -0.153245 -0.131331 -0.108311 -0.085135 -0.062947 -0.043248 -0.013606 -0.002146 -8.247680e-04
  -372.0         X  8.878310e-04  8.781660e-04  8.686070e-04  8.591530e-04  8.498010e-04    1.355690    1.335310    1.315270    1.295660    1.276470    1.257680    1.239280    1.221250    1.203600    1.186300    1.169340    1.152710    1.136410    1.120420    1.104730  -0.266958  -0.265342  -0.264526  -0.263175  -0.261301  -0.258922  -0.255803  -0.251733  -0.246543  -0.239875  -0.231482 -0.221042 -0.208263 -0.192996 -0.175191 -0.154939 -0.132780 -0.109503 -0.086068 -0.063634 -0.043718 -0.013752 -0.002169 -8.334330e-04
  -370.0         X  8.971930e-04  8.874260e-04  8.777660e-04  8.682110e-04  8.587610e-04    1.370630    1.350020    1.329760    1.309930    1.290520    1.271520    1.252920    1.234690    1.216840    1.199340    1.182200    1.165380    1.148900    1.132730    1.116870  -0.269935  -0.268301  -0.267476  -0.266109  -0.264215  -0.261809  -0.258655  -0.254540  -0.249291  -0.242548  -0.234061 -0.223504 -0.210582 -0.195143 -0.177138 -0.156658 -0.134250 -0.110712 -0.087016 -0.064332 -0.044195 -0.013900 -0.002192 -8.422200e-04
  -368.0         X  9.066880e-04  8.968170e-04  8.870540e-04  8.773980e-04  8.678470e-04    1.385790    1.364950    1.344460    1.324410    1.304780    1.285570    1.266760    1.248330    1.230280    1.212590    1.195250    1.178250    1.161580    1.145230    1.129190  -0.272957  -0.271304  -0.270470  -0.269088  -0.267172  -0.264740  -0.261550  -0.257388  -0.252080  -0.245262  -0.236679 -0.226003 -0.212935 -0.197323 -0.179114 -0.158404 -0.135743 -0.111940 -0.087977 -0.065039 -0.044678 -0.014050 -0.002215 -8.511320e-04
  -366.0         X  9.163190e-04  9.063430e-04  8.964750e-04  8.867160e-04  8.770630e-04    1.401180    1.380100    1.359380    1.339110    1.319260    1.299830    1.280810    1.262170    1.243920    1.226030    1.208490    1.191300    1.174450    1.157910    1.141700  -0.276025  -0.274354  -0.273510  -0.272113  -0.270175  -0.267715  -0.264489  -0.260280  -0.254912  -0.248017  -0.239337 -0.228541 -0.215325 -0.199535 -0.181120 -0.160175 -0.137258 -0.113186 -0.088953 -0.065758 -0.045169 -0.014202 -0.002239 -8.601720e-04
  -364.0         X  9.260880e-04  9.160040e-04  9.060310e-04  8.961670e-04  8.864110e-04    1.416800    1.395490    1.374530    1.354020    1.333960    1.314310    1.295070    1.276220    1.257760    1.239670    1.221940    1.204550    1.187510    1.170790    1.154390  -0.279140  -0.277450  -0.276596  -0.275183  -0.273223  -0.270736  -0.267473  -0.263217  -0.257788  -0.250814  -0.242036 -0.231116 -0.217750 -0.201781 -0.183157 -0.161974 -0.138796 -0.114451 -0.089943 -0.066487 -0.045667 -0.014357 -0.002263 -8.693400e-04
  -362.0         X  9.359960e-04  9.258050e-04  9.157240e-04  9.057540e-04  8.958930e-04    1.432660    1.411100    1.389910    1.369170    1.348870    1.329000    1.309550    1.290490    1.271820    1.253520    1.235590    1.218010    1.200770    1.183860    1.167270  -0.282303  -0.280593  -0.279730  -0.278301  -0.276319  -0.273803  -0.270503  -0.266198  -0.260707  -0.253654  -0.244776 -0.233732 -0.220213 -0.204062 -0.185225 -0.163800 -0.140358 -0.115735 -0.090949 -0.067226 -0.046172 -0.014514 -0.002287 -8.786400e-04
  -360.0         X  9.460480e-04  9.357460e-04  9.255570e-04  9.154790e-04  9.055120e-04    1.448750    1.426950    1.405520    1.384540    1.364020    1.343920    1.324240    1.304970    1.286080    1.267580    1.249440    1.231660    1.214230    1.197130    1.180350  -0.285514  -0.283785  -0.282912  -0.281466  -0.279462  -0.276917  -0.273579  -0.269225  -0.263671  -0.256538  -0.247558 -0.236387 -0.222714 -0.206377 -0.187325 -0.165654 -0.141943 -0.117039 -0.091970 -0.067977 -0.046686 -0.014673 -0.002312 -8.880740e-04
  -358.0         X  9.562450e-04  9.458310e-04  9.355320e-04  9.253450e-04  9.152690e-04    1.465100    1.443040    1.421370    1.400150    1.379390    1.359060    1.339160    1.319670    1.300570    1.281850    1.263510    1.245520    1.227890    1.210590    1.193630  -0.288775  -0.287026  -0.286143  -0.284681  -0.282653  -0.280079  -0.276703  -0.272299  -0.266682  -0.259466  -0.250383 -0.239084 -0.225253 -0.208729 -0.189456 -0.167537 -0.143553 -0.118362 -0.093006 -0.068740 -0.047206 -0.014834 -0.002337 -8.976450e-04
  -356.0         X  9.665900e-04  9.560630e-04  9.456510e-04  9.353540e-04  9.251680e-04    1.481690    1.459380    1.437460    1.416000    1.395000    1.374440    1.354310    1.334590    1.315270    1.296340    1.277790    1.259600    1.241760    1.224270    1.207110  -0.292087  -0.290317  -0.289424  -0.287945  -0.285894  -0.283290  -0.279875  -0.275421  -0.269738  -0.262439  -0.253251 -0.241822 -0.227831 -0.211116 -0.191621 -0.169448 -0.145187 -0.119706 -0.094058 -0.069514 -0.047735 -0.014998 -0.002362 -9.073540e-04
  -354.0         X  9.770850e-04  9.664440e-04  9.559180e-04  9.455080e-04  9.352120e-04    1.498540    1.475970    1.453790    1.432090    1.410850    1.390050    1.369690    1.349740    1.330200    1.311060    1.292290    1.273890    1.255850    1.238150    1.220790  -0.295450  -0.293660  -0.292757  -0.291261  -0.289186  -0.286552  -0.283097  -0.278591  -0.272843  -0.265459  -0.256165 -0.244603 -0.230450 -0.213541 -0.193820 -0.171389 -0.146847 -0.121071 -0.095126 -0.070300 -0.048272 -0.015164 -0.002388 -9.172050e-04
  -352.0         X  9.877350e-04  9.769760e-04  9.663360e-04  9.558110e-04  9.454020e-04    1.515640    1.492820    1.470380    1.448430    1.426940    1.405910    1.385310    1.365130    1.345360    1.325990    1.307010    1.288400    1.270150    1.252250    1.234690  -0.298866  -0.297055  -0.296141  -0.294628  -0.292529  -0.289864  -0.286369  -0.281811  -0.275996  -0.268526  -0.259124 -0.247427 -0.233109 -0.216003 -0.196052 -0.173361 -0.148533 -0.122456 -0.096211 -0.071098 -0.048817 -0.015333 -0.002414 -9.272000e-04
  -350.0         X  9.985400e-04  9.876630e-04  9.769050e-04  9.662650e-04  9.557420e-04    1.533010    1.509930    1.487230    1.465020    1.443280    1.422000    1.401170    1.380760    1.360760    1.341170    1.321960    1.303130    1.284670    1.266560    1.248800  -0.302335  -0.300504  -0.299579  -0.298048  -0.295924  -0.293228  -0.289693  -0.285081  -0.279198  -0.271642  -0.262129 -0.250296 -0.235811 -0.218505 -0.198320 -0.175363 -0.150244 -0.123863 -0.097312 -0.071908 -0.049370 -0.015504 -0.002441 -9.373410e-04
  -348.0         X  1.009500e-03  9.985070e-04  9.876310e-04  9.768730e-04  9.662330e-04    1.550660    1.527300    1.504340    1.481870    1.459880    1.438350    1.417270    1.396620    1.376390    1.356570    1.337140    1.318090    1.299420    1.281100    1.263130  -0.305859  -0.304006  -0.303071  -0.301522  -0.299373  -0.296646  -0.293069  -0.288403  -0.282451  -0.274806  -0.265182 -0.253210 -0.238554 -0.221045 -0.200623 -0.177396 -0.151983 -0.125293 -0.098431 -0.072730 -0.049931 -0.015678 -0.002468 -9.476320e-04
  -346.0         X  1.020630e-03  1.009510e-03  9.985150e-04  9.876380e-04  9.768800e-04    1.568570    1.544950    1.521710    1.498980    1.476730    1.454950    1.433630    1.412740    1.392270    1.372220    1.352560    1.333290    1.314390    1.295860    1.277680  -0.309439  -0.307565  -0.306618  -0.305051  -0.302877  -0.300118  -0.296499  -0.291778  -0.285756  -0.278020  -0.268283 -0.256169 -0.241341 -0.223626 -0.202963 -0.179462 -0.153749 -0.126744 -0.099567 -0.073566 -0.050502 -0.015855 -0.002495 -9.580750e-04
  -344.0         X  1.031920e-03  1.020680e-03  1.009560e-03  9.985630e-04  9.876850e-04    1.586770    1.562870    1.539360    1.516360    1.493850    1.471820    1.450240    1.429100    1.408400    1.388110    1.368220    1.348720    1.329610    1.310860    1.292460  -0.313076  -0.311179  -0.310222  -0.308636  -0.306436  -0.303644  -0.299983  -0.295206  -0.289113  -0.281286  -0.271433 -0.259176 -0.244173 -0.226247 -0.205340 -0.181560 -0.155542 -0.128218 -0.100721 -0.074414 -0.051081 -0.016034 -0.002523 -9.686730e-04
  -342.0         X  1.043380e-03  1.032010e-03  1.020770e-03  1.009650e-03  9.986510e-04    1.605260    1.581070    1.557290    1.534020    1.511240    1.488940    1.467110    1.445730    1.424780    1.404250    1.384130    1.364400    1.345060    1.326090    1.307480  -0.316771  -0.314852  -0.313883  -0.312278  -0.310053  -0.307227  -0.303522  -0.298689  -0.292523  -0.284603  -0.274633 -0.262231 -0.247049 -0.228910 -0.207754 -0.183691 -0.157365 -0.129716 -0.101893 -0.075276 -0.051669 -0.016216 -0.002551 -9.794280e-04
  -340.0         X  1.055010e-03  1.043520e-03  1.032150e-03  1.020900e-03  1.009780e-03    1.624040    1.599560    1.575490    1.551950    1.528900    1.506340    1.484250    1.462610    1.441410    1.420640    1.400280    1.380320    1.360750    1.341550    1.322720  -0.320526  -0.318583  -0.317603  -0.315979  -0.313727  -0.310868  -0.307119  -0.302227  -0.295988  -0.287974  -0.277885 -0.265335 -0.249972 -0.231616 -0.210207 -0.185857 -0.159216 -0.131237 -0.103083 -0.076151 -0.052266 -0.016401 -0.002580 -9.903440e-04
  -338.0         X  1.066820e-03  1.055190e-03  1.043700e-03  1.032320e-03  1.021080e-03    1.643110    1.618340    1.593990    1.570170    1.546850    1.524020    1.501660    1.479770    1.458320    1.437300    1.416690    1.396500    1.376690    1.357270    1.338210  -0.324340  -0.322375  -0.321382  -0.319739  -0.317460  -0.314567  -0.310773  -0.305823  -0.299509  -0.291399  -0.281189 -0.268488 -0.252941 -0.234365 -0.212699 -0.188057 -0.161096 -0.132783 -0.104292 -0.077040 -0.052873 -0.016588 -0.002609 -1.001420e-03
  -336.0         X  1.078800e-03  1.067050e-03  1.055420e-03  1.043920e-03  1.032540e-03    1.662490    1.637430    1.612780    1.588670    1.565070    1.541970    1.519350    1.497190    1.475490    1.454210    1.433370    1.412930    1.392890    1.373230    1.353950  -0.328217  -0.326228  -0.325223  -0.323560  -0.321254  -0.318326  -0.314486  -0.309477  -0.303087  -0.294879  -0.284547 -0.271693 -0.255958 -0.237159 -0.215232 -0.190292 -0.163007 -0.134353 -0.105521 -0.077943 -0.053489 -0.016779 -0.002638 -1.012670e-03
  -334.0         X  1.090970e-03  1.079080e-03  1.067320e-03  1.055690e-03  1.044180e-03    1.682180    1.656810    1.631880    1.607470    1.583590    1.560210    1.537320    1.514900    1.492930    1.471400    1.450300    1.429620    1.409340    1.389450    1.369940  -0.332156  -0.330143  -0.329127  -0.327443  -0.325109  -0.322146  -0.318260  -0.313190  -0.306723  -0.298416  -0.287958 -0.274949 -0.259024 -0.239997 -0.217805 -0.192564 -0.164949 -0.135948 -0.106769 -0.078861 -0.054115 -0.016972 -0.002668 -1.024090e-03
  -332.0         X  1.103310e-03  1.091290e-03  1.079400e-03  1.067630e-03  1.056000e-03    1.702180    1.676510    1.651270    1.626580    1.602410    1.578750    1.555580    1.532890    1.510650    1.488870    1.467510    1.446580    1.426060    1.405930    1.386180  -0.336160  -0.334122  -0.333094  -0.331390  -0.329028  -0.326028  -0.322095  -0.316964  -0.310418  -0.302010  -0.291426 -0.278259 -0.262141 -0.242882 -0.220420 -0.194872 -0.166921 -0.137570 -0.108037 -0.079793 -0.054751 -0.017169 -0.002698 -1.035680e-03
