Name:C X_Dim:60 Y_Dim:600 Conductance:10000.0

### Channel Times ###
      Start      End
0   -1.9505  -1.9495
1   -1.8505  -1.8495
2   -1.7505  -1.7495
3   -1.6505  -1.6495
4   -1.5505  -1.5495
5   -1.4500  -1.4490
6   -1.3505  -1.3495
7   -1.2505  -1.2495
8   -1.1505  -1.1495
9   -1.0505  -1.0495
10  -0.9505  -0.9495
11  -0.8505  -0.8495
12  -0.7505  -0.7495
13  -0.6505  -0.6495
14  -0.5505  -0.5495
15  -0.4505  -0.4495
16  -0.3505  -0.3495
17  -0.2505  -0.2495
18  -0.1505  -0.1495
19  -0.0505  -0.0495
20   0.0250   0.0260
21   0.0545   0.0555
22   0.0695   0.0705
23   0.0945   0.0955
24   0.1295   0.1305
25   0.1745   0.1755
26   0.2345   0.2355
27   0.3145   0.3155
28   0.4195   0.4205
29   0.5595   0.5605
30   0.7445   0.7455
31   0.9895   0.9905
32   1.3145   1.3155
33   1.7445   1.7455
34   2.3145   2.3155
35   3.0745   3.0755
36   4.0845   4.0855
37   5.4245   5.4255
38   7.2045   7.2055
39   9.5695   9.5705
40  12.6595  12.6605
41  22.7295  22.7305
42  39.3945  39.3955
43  48.1145  48.1155

### Data ###
 Station Component         0         1         2         3         4           5           6           7           8           9          10          11          12          13          14          15          16          17          18          19        20        21        22        23        24        25        26        27        28        29        30        31        32        33        34        35        36        37        38        39            40        41            42            43
  -400.0         X  0.013462  0.013442  0.013423  0.013403  0.013383    1.188630    1.186820    1.185010    1.183200    1.181400    1.179600    1.177800    1.176010    1.174220    1.172440    1.170660    1.168880    1.167110    1.165340    1.163580 -0.013468 -0.013456 -0.013450 -0.013440 -0.013426 -0.013408 -0.013384 -0.013352 -0.013311 -0.013256 -0.013184 -0.013089 -0.012965 -0.012804 -0.012594 -0.012322 -0.011973 -0.011532 -0.010982 -0.010308 -9.513670e-03 -0.007465 -5.258350e-03 -4.463200e-03
  -398.0         X  0.013603  0.013584  0.013564  0.013544  0.013524    1.201060    1.199230    1.197400    1.195570    1.193750    1.191930    1.190120    1.188300    1.186500    1.184690    1.182900    1.181100    1.179310    1.177520    1.175740 -0.013611 -0.013599 -0.013593 -0.013583 -0.013569 -0.013551 -0.013527 -0.013495 -0.013453 -0.013397 -0.013324 -0.013229 -0.013103 -0.012940 -0.012728 -0.012453 -0.012101 -0.011655 -0.011099 -0.010417 -9.615060e-03 -0.007545 -5.314330e-03 -4.510660e-03
  -396.0         X  0.013747  0.013727  0.013707  0.013687  0.013667    1.213660    1.211810    1.209960    1.208120    1.206270    1.204430    1.202600    1.200770    1.198940    1.197120    1.195300    1.193490    1.191680    1.189870    1.188070 -0.013756 -0.013744 -0.013738 -0.013728 -0.013714 -0.013695 -0.013671 -0.013639 -0.013596 -0.013540 -0.013467 -0.013370 -0.013243 -0.013078 -0.012864 -0.012586 -0.012230 -0.011780 -0.011218 -0.010529 -9.717910e-03 -0.007625 -5.371120e-03 -4.558810e-03
  -394.0         X  0.013893  0.013872  0.013852  0.013832  0.013811    1.226440    1.224570    1.222700    1.220840    1.218970    1.217120    1.215260    1.213410    1.211570    1.209730    1.207890    1.206060    1.204230    1.202400    1.200580 -0.013904 -0.013892 -0.013886 -0.013875 -0.013861 -0.013842 -0.013818 -0.013785 -0.013742 -0.013686 -0.013611 -0.013513 -0.013385 -0.013219 -0.013002 -0.012721 -0.012361 -0.011906 -0.011338 -0.010642 -9.822260e-03 -0.007707 -5.428740e-03 -4.607660e-03
  -392.0         X  0.014040  0.014020  0.013999  0.013978  0.013958    1.239400    1.237520    1.235630    1.233740    1.231860    1.229980    1.228110    1.226240    1.224370    1.222510    1.220650    1.218800    1.216950    1.215110    1.213270 -0.014054 -0.014041 -0.014035 -0.014025 -0.014010 -0.013991 -0.013966 -0.013933 -0.013890 -0.013833 -0.013758 -0.013659 -0.013529 -0.013361 -0.013142 -0.012858 -0.012495 -0.012034 -0.011460 -0.010757 -9.928130e-03 -0.007790 -5.487190e-03 -4.657220e-03
  -390.0         X  0.014190  0.014169  0.014148  0.014127  0.014107    1.252550    1.250650    1.248730    1.246830    1.244930    1.243030    1.241130    1.239240    1.237360    1.235480    1.233600    1.231730    1.229860    1.228000    1.226140 -0.014205 -0.014193 -0.014187 -0.014176 -0.014161 -0.014143 -0.014117 -0.014084 -0.014040 -0.013982 -0.013906 -0.013807 -0.013676 -0.013505 -0.013284 -0.012997 -0.012630 -0.012164 -0.011584 -0.010873 -1.003560e-02 -0.007875 -5.546500e-03 -4.707500e-03
  -388.0         X  0.014342  0.014321  0.014300  0.014279  0.014258    1.265890    1.263960    1.262030    1.260100    1.258180    1.256260    1.254350    1.252440    1.250530    1.248630    1.246740    1.244840    1.242950    1.241070    1.239190 -0.014360 -0.014347 -0.014341 -0.014330 -0.014315 -0.014296 -0.014271 -0.014237 -0.014193 -0.014134 -0.014057 -0.013956 -0.013824 -0.013652 -0.013428 -0.013138 -0.012767 -0.012297 -0.011710 -0.010991 -1.014460e-02 -0.007960 -5.606690e-03 -4.758520e-03
  -386.0         X  0.014496  0.014474  0.014453  0.014432  0.014411    1.279420    1.277470    1.275520    1.273570    1.271630    1.269690    1.267760    1.265830    1.263900    1.261980    1.260060    1.258150    1.256240    1.254330    1.252430 -0.014516 -0.014503 -0.014497 -0.014486 -0.014471 -0.014452 -0.014426 -0.014392 -0.014347 -0.014288 -0.014210 -0.014108 -0.013975 -0.013801 -0.013575 -0.013281 -0.012906 -0.012431 -0.011837 -0.011111 -1.025520e-02 -0.008047 -5.667760e-03 -4.810300e-03
  -384.0         X  0.014652  0.014631  0.014609  0.014588  0.014566    1.293150    1.291180    1.289210    1.287240    1.285270    1.283310    1.281360    1.279400    1.277460    1.275510    1.273580    1.271640    1.269710    1.267790    1.265860 -0.014675 -0.014662 -0.014655 -0.014644 -0.014629 -0.014610 -0.014584 -0.014549 -0.014504 -0.014444 -0.014366 -0.014263 -0.014127 -0.013952 -0.013723 -0.013427 -0.013047 -0.012567 -0.011967 -0.011232 -1.036740e-02 -0.008135 -5.729730e-03 -4.862830e-03
  -382.0         X  0.014811  0.014789  0.014767  0.014746  0.014724    1.307070    1.305080    1.303090    1.301100    1.299110    1.297130    1.295150    1.293180    1.291210    1.289250    1.287290    1.285330    1.283380    1.281440    1.279490 -0.014836 -0.014823 -0.014816 -0.014805 -0.014790 -0.014770 -0.014744 -0.014709 -0.014663 -0.014603 -0.014523 -0.014419 -0.014283 -0.014105 -0.013874 -0.013574 -0.013190 -0.012705 -0.012098 -0.011356 -1.048140e-02 -0.008224 -5.792620e-03 -4.916150e-03
  -380.0         X  0.014972  0.014950  0.014928  0.014906  0.014884    1.321200    1.319190    1.317180    1.315160    1.313160    1.311150    1.309150    1.307160    1.305170    1.303180    1.301200    1.299230    1.297250    1.295290    1.293320 -0.014999 -0.014986 -0.014979 -0.014968 -0.014953 -0.014933 -0.014906 -0.014871 -0.014825 -0.014764 -0.014683 -0.014578 -0.014440 -0.014260 -0.014027 -0.013724 -0.013336 -0.012845 -0.012232 -0.011481 -1.059700e-02 -0.008315 -5.856460e-03 -4.970260e-03
  -378.0         X  0.015135  0.015113  0.015091  0.015069  0.015047    1.335540    1.333510    1.331470    1.329440    1.327410    1.325380    1.323360    1.321340    1.319330    1.317320    1.315320    1.313320    1.311330    1.309340    1.307350 -0.015165 -0.015152 -0.015145 -0.015134 -0.015118 -0.015098 -0.015071 -0.015035 -0.014989 -0.014927 -0.014846 -0.014739 -0.014600 -0.014418 -0.014182 -0.013876 -0.013483 -0.012987 -0.012367 -0.011608 -1.071430e-02 -0.008407 -5.921250e-03 -5.025180e-03
  -376.0         X  0.015301  0.015278  0.015256  0.015234  0.015211    1.350090    1.348040    1.345970    1.343920    1.341860    1.339820    1.337770    1.335740    1.333700    1.331670    1.329650    1.327630    1.325610    1.323600    1.321590 -0.015333 -0.015320 -0.015313 -0.015302 -0.015286 -0.015265 -0.015238 -0.015202 -0.015155 -0.015093 -0.015011 -0.014903 -0.014762 -0.014578 -0.014339 -0.014030 -0.013633 -0.013131 -0.012505 -0.011737 -1.083350e-02 -0.008501 -5.987010e-03 -5.080930e-03
  -374.0         X  0.015469  0.015446  0.015424  0.015401  0.015378    1.364850    1.362780    1.360690    1.358610    1.356540    1.354470    1.352400    1.350340    1.348280    1.346230    1.344190    1.342140    1.340100    1.338070    1.336040 -0.015504 -0.015491 -0.015484 -0.015472 -0.015456 -0.015436 -0.015408 -0.015372 -0.015324 -0.015261 -0.015178 -0.015069 -0.014926 -0.014741 -0.014499 -0.014186 -0.013785 -0.013278 -0.012644 -0.011868 -1.095440e-02 -0.008596 -6.053770e-03 -5.137520e-03
  -372.0         X  0.015640  0.015617  0.015594  0.015571  0.015548    1.379840    1.377740    1.375630    1.373530    1.371430    1.369330    1.367250    1.365160    1.363080    1.361010    1.358940    1.356870    1.354810    1.352760    1.350700 -0.015678 -0.015664 -0.015657 -0.015645 -0.015629 -0.015608 -0.015581 -0.015544 -0.015496 -0.015432 -0.015348 -0.015238 -0.015093 -0.014906 -0.014661 -0.014345 -0.013939 -0.013426 -0.012786 -0.012001 -1.107720e-02 -0.008692 -6.121540e-03 -5.194960e-03
  -370.0         X  0.015813  0.015790  0.015767  0.015744  0.015720    1.395040    1.392920    1.390790    1.388660    1.386540    1.384420    1.382310    1.380200    1.378100    1.376000    1.373910    1.371820    1.369740    1.367660    1.365580 -0.015854 -0.015840 -0.015833 -0.015821 -0.015805 -0.015784 -0.015756 -0.015718 -0.015670 -0.015605 -0.015520 -0.015409 -0.015263 -0.015073 -0.014826 -0.014506 -0.014096 -0.013577 -0.012930 -0.012136 -1.120180e-02 -0.008790 -6.190340e-03 -5.253280e-03
  -368.0         X  0.015989  0.015965  0.015942  0.015919  0.015895    1.410480    1.408330    1.406170    1.404020    1.401880    1.399740    1.397600    1.395470    1.393350    1.391220    1.389110    1.387000    1.384890    1.382790    1.380690 -0.016033 -0.016019 -0.016012 -0.016000 -0.015983 -0.015962 -0.015933 -0.015896 -0.015846 -0.015781 -0.015695 -0.015583 -0.015435 -0.015243 -0.014994 -0.014670 -0.014255 -0.013731 -0.013076 -0.012273 -1.132840e-02 -0.008889 -6.260190e-03 -5.312490e-03
  -366.0         X  0.016167  0.016144  0.016120  0.016096  0.016073    1.426140    1.423970    1.421790    1.419620    1.417450    1.415280    1.413120    1.410970    1.408820    1.406670    1.404530    1.402400    1.400270    1.398140    1.396020 -0.016214 -0.016200 -0.016193 -0.016181 -0.016164 -0.016143 -0.016114 -0.016076 -0.016026 -0.015960 -0.015873 -0.015759 -0.015610 -0.015416 -0.015163 -0.014836 -0.014417 -0.013886 -0.013224 -0.012412 -1.145690e-02 -0.008990 -6.331110e-03 -5.372600e-03
  -364.0         X  0.016349  0.016325  0.016301  0.016277  0.016253    1.442040    1.439840    1.437640    1.435440    1.433250    1.431060    1.428880    1.426700    1.424520    1.422350    1.420190    1.418030    1.415870    1.413720    1.411580 -0.016399 -0.016384 -0.016377 -0.016365 -0.016348 -0.016326 -0.016297 -0.016259 -0.016208 -0.016141 -0.016054 -0.015939 -0.015788 -0.015591 -0.015336 -0.015005 -0.014581 -0.014044 -0.013374 -0.012554 -1.158730e-02 -0.009092 -6.403130e-03 -5.433640e-03
  -362.0         X  0.016533  0.016508  0.016484  0.016460  0.016436    1.458180    1.455960    1.453730    1.451510    1.449290    1.447080    1.444870    1.442670    1.440470    1.438270    1.436080    1.433900    1.431720    1.429540    1.427370 -0.016586 -0.016571 -0.016564 -0.016552 -0.016535 -0.016512 -0.016483 -0.016444 -0.016393 -0.016326 -0.016237 -0.016121 -0.015968 -0.015769 -0.015511 -0.015177 -0.014748 -0.014205 -0.013527 -0.012697 -1.171980e-02 -0.009196 -6.476260e-03 -5.495620e-03
  -360.0         X  0.016719  0.016695  0.016670  0.016646  0.016622    1.474570    1.472320    1.470070    1.467820    1.465580    1.463340    1.461100    1.458880    1.456650    1.454430    1.452220    1.450010    1.447800    1.445610    1.443410 -0.016776 -0.016761 -0.016754 -0.016741 -0.016724 -0.016702 -0.016672 -0.016633 -0.016581 -0.016513 -0.016423 -0.016305 -0.016151 -0.015950 -0.015689 -0.015351 -0.014917 -0.014368 -0.013683 -0.012843 -1.185440e-02 -0.009302 -6.550520e-03 -5.558560e-03
  -358.0         X  0.016909  0.016884  0.016859  0.016835  0.016810    1.491210    1.488930    1.486650    1.484380    1.482110    1.479850    1.477590    1.475330    1.473080    1.470840    1.468600    1.466360    1.464140    1.461910    1.459690 -0.016969 -0.016954 -0.016947 -0.016934 -0.016917 -0.016894 -0.016864 -0.016824 -0.016772 -0.016703 -0.016612 -0.016493 -0.016337 -0.016134 -0.015870 -0.015527 -0.015088 -0.014533 -0.013840 -0.012991 -1.199100e-02 -0.009409 -6.625940e-03 -5.622480e-03
  -356.0         X  0.017102  0.017077  0.017052  0.017026  0.017001    1.508100    1.505800    1.503490    1.501190    1.498900    1.496610    1.494320    1.492040    1.489770    1.487500    1.485230    1.482970    1.480720    1.478470    1.476220 -0.017165 -0.017150 -0.017143 -0.017130 -0.017112 -0.017089 -0.017059 -0.017019 -0.016966 -0.016896 -0.016804 -0.016684 -0.016526 -0.016320 -0.016053 -0.015707 -0.015263 -0.014701 -0.014000 -0.013141 -1.212980e-02 -0.009518 -6.702550e-03 -5.687400e-03
  -354.0         X  0.017297  0.017272  0.017247  0.017221  0.017196    1.525250    1.522920    1.520590    1.518260    1.515940    1.513620    1.511310    1.509010    1.506710    1.504410    1.502120    1.499830    1.497550    1.495270    1.493000 -0.017365 -0.017349 -0.017342 -0.017329 -0.017311 -0.017288 -0.017257 -0.017216 -0.017163 -0.017092 -0.016999 -0.016878 -0.016718 -0.016510 -0.016240 -0.015889 -0.015440 -0.014872 -0.014163 -0.013294 -1.227080e-02 -0.009629 -6.780350e-03 -5.753340e-03
  -352.0         X  0.017496  0.017470  0.017445  0.017419  0.017393    1.542660    1.540310    1.537950    1.535600    1.533250    1.530910    1.528570    1.526230    1.523910    1.521580    1.519270    1.516950    1.514650    1.512340    1.510050 -0.017567 -0.017552 -0.017544 -0.017531 -0.017513 -0.017489 -0.017458 -0.017417 -0.017363 -0.017291 -0.017198 -0.017074 -0.016913 -0.016702 -0.016429 -0.016075 -0.015620 -0.015046 -0.014328 -0.013449 -1.241400e-02 -0.009741 -6.859390e-03 -5.820320e-03
  -350.0         X  0.017698  0.017672  0.017646  0.017620  0.017594    1.560350    1.557970    1.555580    1.553200    1.550830    1.548450    1.546090    1.543730    1.541370    1.539020    1.536680    1.534340    1.532010    1.529680    1.527350 -0.017773 -0.017757 -0.017749 -0.017736 -0.017718 -0.017694 -0.017663 -0.017621 -0.017566 -0.017494 -0.017399 -0.017274 -0.017111 -0.016898 -0.016621 -0.016263 -0.015803 -0.015222 -0.014496 -0.013607 -1.255950e-02 -0.009855 -6.939680e-03 -5.888360e-03
  -348.0         X  0.017902  0.017876  0.017850  0.017824  0.017798    1.578310    1.575900    1.573490    1.571080    1.568670    1.566280    1.563880    1.561490    1.559110    1.556740    1.554360    1.552000    1.549640    1.547280    1.544930 -0.017981 -0.017966 -0.017958 -0.017944 -0.017926 -0.017902 -0.017870 -0.017828 -0.017773 -0.017699 -0.017603 -0.017477 -0.017312 -0.017096 -0.016817 -0.016454 -0.015989 -0.015401 -0.014667 -0.013767 -1.270730e-02 -0.009971 -7.021240e-03 -5.957480e-03
  -346.0         X  0.018111  0.018084  0.018057  0.018031  0.018004    1.596550    1.594110    1.591670    1.589230    1.586800    1.584380    1.581950    1.579540    1.577130    1.574720    1.572320    1.569930    1.567540    1.565160    1.562780 -0.018194 -0.018178 -0.018170 -0.018156 -0.018137 -0.018113 -0.018081 -0.018038 -0.017982 -0.017908 -0.017811 -0.017683 -0.017516 -0.017298 -0.017015 -0.016648 -0.016178 -0.015583 -0.014840 -0.013930 -1.285750e-02 -0.010089 -7.104110e-03 -6.027710e-03
  -344.0         X  0.018322  0.018295  0.018268  0.018241  0.018215    1.615080    1.612610    1.610140    1.607670    1.605210    1.602760    1.600310    1.597870    1.595430    1.592990    1.590570    1.588140    1.585730    1.583310    1.580910 -0.018409 -0.018393 -0.018385 -0.018371 -0.018352 -0.018328 -0.018295 -0.018252 -0.018195 -0.018121 -0.018022 -0.017893 -0.017724 -0.017503 -0.017217 -0.016846 -0.016370 -0.015768 -0.015016 -0.014095 -1.301010e-02 -0.010209 -7.188310e-03 -6.099060e-03
  -342.0         X  0.018537  0.018509  0.018482  0.018455  0.018428    1.633900    1.631400    1.628900    1.626410    1.623920    1.621430    1.618950    1.616480    1.614010    1.611550    1.609090    1.606640    1.604200    1.601760    1.599320 -0.018628 -0.018612 -0.018604 -0.018590 -0.018571 -0.018546 -0.018513 -0.018469 -0.018412 -0.018336 -0.018236 -0.018106 -0.017935 -0.017712 -0.017422 -0.017046 -0.016565 -0.015955 -0.015195 -0.014263 -1.316510e-02 -0.010331 -7.273870e-03 -6.171550e-03
  -340.0         X  0.018755  0.018727  0.018700  0.018672  0.018645    1.653010    1.650490    1.647960    1.645430    1.642910    1.640400    1.637890    1.635390    1.632890    1.630400    1.627920    1.625440    1.622960    1.620490    1.618030 -0.018851 -0.018834 -0.018826 -0.018812 -0.018793 -0.018767 -0.018734 -0.018690 -0.018632 -0.018555 -0.018454 -0.018322 -0.018149 -0.017923 -0.017630 -0.017250 -0.016763 -0.016146 -0.015376 -0.014433 -1.332270e-02 -0.010454 -7.360810e-03 -6.245220e-03
  -338.0         X  0.018976  0.018949  0.018921  0.018893  0.018865    1.672430    1.669880    1.667320    1.664760    1.662210    1.659670    1.657130    1.654600    1.652070    1.649550    1.647040    1.644530    1.642020    1.639520    1.637030 -0.019077 -0.019060 -0.019052 -0.019038 -0.019018 -0.018993 -0.018959 -0.018914 -0.018856 -0.018778 -0.018676 -0.018542 -0.018367 -0.018138 -0.017842 -0.017457 -0.016964 -0.016340 -0.015561 -0.014607 -1.348280e-02 -0.010580 -7.449160e-03 -6.320080e-03
  -336.0         X  0.019201  0.019173  0.019145  0.019117  0.019089    1.692160    1.689570    1.686980    1.684400    1.681820    1.679240    1.676680    1.674110    1.671560    1.669010    1.666460    1.663920    1.661390    1.658860    1.656340 -0.019307 -0.019290 -0.019282 -0.019267 -0.019247 -0.019222 -0.019187 -0.019142 -0.019083 -0.019004 -0.018901 -0.018766 -0.018588 -0.018357 -0.018057 -0.017668 -0.017169 -0.016537 -0.015749 -0.014783 -1.364560e-02 -0.010708 -7.538950e-03 -6.396170e-03
  -334.0         X  0.019430  0.019402  0.019373  0.019345  0.019316    1.712200    1.709590    1.706970    1.704350    1.701740    1.699130    1.696530    1.693940    1.691350    1.688770    1.686200    1.683630    1.681060    1.678500    1.675950 -0.019541 -0.019523 -0.019515 -0.019500 -0.019480 -0.019454 -0.019420 -0.019374 -0.019314 -0.019234 -0.019130 -0.018993 -0.018813 -0.018579 -0.018276 -0.017882 -0.017376 -0.016737 -0.015940 -0.014962 -1.381100e-02 -0.010837 -7.630220e-03 -6.473500e-03
  -332.0         X  0.019663  0.019634  0.019605  0.019576  0.019547    1.732570    1.729920    1.727270    1.724620    1.721980    1.719340    1.716710    1.714090    1.711470    1.708860    1.706250    1.703650    1.701050    1.698460    1.695880 -0.019778 -0.019761 -0.019752 -0.019737 -0.019717 -0.019691 -0.019656 -0.019609 -0.019549 -0.019468 -0.019363 -0.019224 -0.019042 -0.018805 -0.018498 -0.018099 -0.017588 -0.016941 -0.016134 -0.015144 -1.397910e-02 -0.010970 -7.722990e-03 -6.552100e-03
  -330.0         X  0.019899  0.019870  0.019841  0.019811  0.019782    1.753260    1.750590    1.747900    1.745220    1.742550    1.739880    1.737220    1.734560    1.731910    1.729260    1.726630    1.723990    1.721370    1.718740    1.716130 -0.020020 -0.020002 -0.019993 -0.019978 -0.019958 -0.019931 -0.019896 -0.019849 -0.019787 -0.019706 -0.019599 -0.019459 -0.019275 -0.019035 -0.018724 -0.018320 -0.017803 -0.017148 -0.016331 -0.015330 -1.415010e-02 -0.011104 -7.817290e-03 -6.631990e-03
