Name:C X_Dim:75 Y_Dim:150 Conductance:10000.0

### Channel Times ###
      Start      End
0   -1.9505  -1.9495
1   -1.8505  -1.8495
2   -1.7505  -1.7495
3   -1.6505  -1.6495
4   -1.5505  -1.5495
5   -1.4500  -1.4490
6   -1.3505  -1.3495
7   -1.2505  -1.2495
8   -1.1505  -1.1495
9   -1.0505  -1.0495
10  -0.9505  -0.9495
11  -0.8505  -0.8495
12  -0.7505  -0.7495
13  -0.6505  -0.6495
14  -0.5505  -0.5495
15  -0.4505  -0.4495
16  -0.3505  -0.3495
17  -0.2505  -0.2495
18  -0.1505  -0.1495
19  -0.0505  -0.0495
20   0.0250   0.0260
21   0.0545   0.0555
22   0.0695   0.0705
23   0.0945   0.0955
24   0.1295   0.1305
25   0.1745   0.1755
26   0.2345   0.2355
27   0.3145   0.3155
28   0.4195   0.4205
29   0.5595   0.5605
30   0.7445   0.7455
31   0.9895   0.9905
32   1.3145   1.3155
33   1.7445   1.7455
34   2.3145   2.3155
35   3.0745   3.0755
36   4.0845   4.0855
37   5.4245   5.4255
38   7.2045   7.2055
39   9.5695   9.5705
40  12.6595  12.6605
41  22.7295  22.7305
42  39.3945  39.3955
43  48.1145  48.1155

### Data ###
 Station Component          0          1          2          3          4            5            6            7            8            9           10           11           12           13           14           15           16           17           18           19          20          21          22          23          24          25          26          27          28          29          30          31          32          33          34          35          36          37          38          39          40         41         42         43
  -400.0         X   0.015344   0.015322   0.015300   0.015279   0.015257     1.483420     1.481030     1.478630     1.476240     1.473860     1.471490     1.469120     1.466760     1.464410     1.462070     1.459740     1.457410     1.455090     1.452780     1.450480   -0.020040   -0.020011   -0.019996   -0.019972   -0.019938   -0.019895   -0.019837   -0.019761   -0.019661   -0.019530   -0.019358   -0.019135   -0.018844   -0.018471   -0.017994   -0.017388   -0.016633   -0.015710   -0.014609   -0.013331   -0.011923  -0.008710  -0.005795  -0.004850
  -398.0         X   0.015514   0.015492   0.015470   0.015448   0.015426     1.499850     1.497430     1.495000     1.492580     1.490180     1.487780     1.485380     1.483000     1.480620     1.478260     1.475900     1.473540     1.471200     1.468860     1.466530   -0.020266   -0.020237   -0.020223   -0.020198   -0.020164   -0.020120   -0.020062   -0.019984   -0.019884   -0.019751   -0.019577   -0.019351   -0.019057   -0.018680   -0.018197   -0.017585   -0.016821   -0.015888   -0.014774   -0.013482   -0.012057  -0.008808  -0.005860  -0.004904
  -396.0         X   0.015687   0.015665   0.015643   0.015620   0.015598     1.516510     1.514060     1.511610     1.509170     1.506730     1.504310     1.501890     1.499480     1.497070     1.494680     1.492290     1.489910     1.487540     1.485180     1.482830   -0.020496   -0.020467   -0.020452   -0.020427   -0.020393   -0.020348   -0.020289   -0.020211   -0.020109   -0.019975   -0.019799   -0.019571   -0.019273   -0.018892   -0.018404   -0.017784   -0.017012   -0.016068   -0.014941   -0.013635   -0.012194  -0.008907  -0.005926  -0.004959
  -394.0         X   0.015863   0.015840   0.015818   0.015795   0.015773     1.533430     1.530950     1.528470     1.526000     1.523540     1.521080     1.518640     1.516200     1.513770     1.511350     1.508930     1.506530     1.504130     1.501740     1.499360   -0.020730   -0.020700   -0.020685   -0.020660   -0.020625   -0.020580   -0.020521   -0.020441   -0.020338   -0.020202   -0.020025   -0.019793   -0.019493   -0.019107   -0.018613   -0.017987   -0.017205   -0.016251   -0.015111   -0.013790   -0.012332  -0.009008  -0.005993  -0.005015
  -392.0         X   0.016041   0.016018   0.015995   0.015972   0.015950     1.550590     1.548090     1.545580     1.543080     1.540590     1.538110     1.535630     1.533170     1.530710     1.528260     1.525820     1.523390     1.520960     1.518550     1.516140   -0.020967   -0.020937   -0.020922   -0.020896   -0.020861   -0.020815   -0.020755   -0.020675   -0.020571   -0.020433   -0.020254   -0.020020   -0.019716   -0.019325   -0.018826   -0.018192   -0.017402   -0.016437   -0.015284   -0.013947   -0.012473  -0.009111  -0.006061  -0.005072
  -390.0         X   0.016222   0.016199   0.016175   0.016152   0.016130     1.568020     1.565480     1.562950     1.560420     1.557900     1.555390     1.552890     1.550390     1.547910     1.545430     1.542960     1.540500     1.538050     1.535600     1.533170   -0.021208   -0.021177   -0.021162   -0.021136   -0.021100   -0.021054   -0.020993   -0.020913   -0.020807   -0.020668   -0.020486   -0.020250   -0.019942   -0.019547   -0.019042   -0.018401   -0.017602   -0.016625   -0.015459   -0.014107   -0.012616  -0.009215  -0.006130  -0.005130
  -388.0         X   0.016405   0.016382   0.016358   0.016335   0.016312     1.585700     1.583140     1.580570     1.578020     1.575470     1.572930     1.570400     1.567870     1.565360     1.562850     1.560360     1.557870     1.555390     1.552920     1.550450   -0.021452   -0.021421   -0.021406   -0.021380   -0.021344   -0.021297   -0.021235   -0.021154   -0.021047   -0.020906   -0.020723   -0.020483   -0.020172   -0.019772   -0.019262   -0.018613   -0.017804   -0.016817   -0.015637   -0.014269   -0.012761  -0.009321  -0.006201  -0.005188
  -386.0         X   0.016591   0.016568   0.016544   0.016521   0.016497     1.603650     1.601060     1.598460     1.595880     1.593300     1.590730     1.588170     1.585620     1.583080     1.580540     1.578020     1.575500     1.572990     1.570490     1.568000   -0.021700   -0.021669   -0.021653   -0.021627   -0.021590   -0.021544   -0.021481   -0.021398   -0.021291   -0.021148   -0.020962   -0.020720   -0.020406   -0.020001   -0.019484   -0.018828   -0.018010   -0.017011   -0.015818   -0.014434   -0.012908  -0.009428  -0.006272  -0.005248
  -384.0         X   0.016780   0.016757   0.016733   0.016709   0.016685     1.621870     1.619250     1.616630     1.614010     1.611400     1.608810     1.606220     1.603640     1.601060     1.598500     1.595950     1.593400     1.590860     1.588330     1.585810   -0.021952   -0.021921   -0.021905   -0.021878   -0.021841   -0.021794   -0.021731   -0.021647   -0.021538   -0.021394   -0.021206   -0.020961   -0.020643   -0.020233   -0.019711   -0.019047   -0.018219   -0.017208   -0.016001   -0.014602   -0.013058  -0.009537  -0.006344  -0.005308
  -382.0         X   0.016972   0.016948   0.016924   0.016900   0.016876     1.640370     1.637720     1.635070     1.632420     1.629780     1.627150     1.624530     1.621920     1.619320     1.616730     1.614140     1.611570     1.609000     1.606440     1.603890   -0.022208   -0.022177   -0.022160   -0.022134   -0.022096   -0.022048   -0.021984   -0.021899   -0.021789   -0.021643   -0.021453   -0.021205   -0.020883   -0.020469   -0.019940   -0.019269   -0.018432   -0.017409   -0.016188   -0.014772   -0.013210  -0.009648  -0.006417  -0.005370
  -380.0         X   0.017167   0.017143   0.017118   0.017094   0.017070     1.659150     1.656470     1.653790     1.651110     1.648440     1.645780     1.643130     1.640490     1.637860     1.635240     1.632620     1.630020     1.627420     1.624830     1.622250   -0.022468   -0.022436   -0.022420   -0.022393   -0.022355   -0.022306   -0.022242   -0.022156   -0.022044   -0.021897   -0.021704   -0.021453   -0.021128   -0.020709   -0.020174   -0.019494   -0.018647   -0.017613   -0.016377   -0.014944   -0.013364  -0.009760  -0.006492  -0.005432
  -378.0         X   0.017365   0.017340   0.017316   0.017291   0.017267     1.678220     1.675510     1.672790     1.670080     1.667380     1.664690     1.662010     1.659340     1.656680     1.654030     1.651380     1.648750     1.646120     1.643500     1.640890   -0.022732   -0.022700   -0.022683   -0.022656   -0.022617   -0.022568   -0.022503   -0.022416   -0.022303   -0.022154   -0.021959   -0.021705   -0.021376   -0.020952   -0.020411   -0.019723   -0.018866   -0.017819   -0.016569   -0.015120   -0.013521  -0.009875  -0.006568  -0.005495
  -376.0         X   0.017566   0.017541   0.017516   0.017491   0.017466     1.697580     1.694840     1.692090     1.689350     1.686620     1.683900     1.681190     1.678480     1.675790     1.673100     1.670430     1.667760     1.665100     1.662460     1.659820   -0.023001   -0.022968   -0.022951   -0.022923   -0.022884   -0.022835   -0.022769   -0.022681   -0.022566   -0.022416   -0.022218   -0.021962   -0.021628   -0.021199   -0.020652   -0.019956   -0.019089   -0.018030   -0.016765   -0.015298   -0.013680  -0.009991  -0.006645  -0.005560
  -374.0         X   0.017770   0.017745   0.017720   0.017694   0.017669     1.717250     1.714470     1.711690     1.708910     1.706150     1.703400     1.700650     1.697920     1.695190     1.692480     1.689770     1.687070     1.684380     1.681700     1.679030   -0.023273   -0.023240   -0.023223   -0.023195   -0.023156   -0.023105   -0.023038   -0.022950   -0.022834   -0.022681   -0.022482   -0.022222   -0.021884   -0.021451   -0.020896   -0.020192   -0.019315   -0.018243   -0.016963   -0.015479   -0.013842  -0.010109  -0.006723  -0.005625
  -372.0         X   0.017977   0.017952   0.017926   0.017901   0.017875     1.737210     1.734400     1.731590     1.728780     1.725990     1.723200     1.720420     1.717660     1.714900     1.712150     1.709410     1.706680     1.703960     1.701250     1.698550   -0.023550   -0.023516   -0.023499   -0.023471   -0.023431   -0.023380   -0.023312   -0.023223   -0.023105   -0.022951   -0.022749   -0.022486   -0.022145   -0.021706   -0.021145   -0.020432   -0.019544   -0.018460   -0.017164   -0.015662   -0.014006  -0.010228  -0.006802  -0.005691
  -370.0         X   0.018188   0.018162   0.018136   0.018110   0.018084     1.757490     1.754640     1.751790     1.748960     1.746130     1.743310     1.740500     1.737700     1.734910     1.732130     1.729360     1.726600     1.723840     1.721100     1.718360   -0.023831   -0.023797   -0.023780   -0.023751   -0.023711   -0.023659   -0.023591   -0.023500   -0.023381   -0.023225   -0.023021   -0.022755   -0.022409   -0.021965   -0.021397   -0.020676   -0.019778   -0.018680   -0.017369   -0.015849   -0.014173  -0.010350  -0.006883  -0.005758
  -368.0         X   0.018402   0.018375   0.018349   0.018323   0.018297     1.778080     1.775200     1.772320     1.769450     1.766580     1.763730     1.760890     1.758060     1.755230     1.752420     1.749620     1.746820     1.744030     1.741260     1.738490   -0.024117   -0.024083   -0.024065   -0.024036   -0.023995   -0.023943   -0.023874   -0.023782   -0.023662   -0.023503   -0.023297   -0.023027   -0.022678   -0.022228   -0.021654   -0.020924   -0.020015   -0.018904   -0.017577   -0.016039   -0.014343  -0.010474  -0.006965  -0.005827
  -366.0         X   0.018619   0.018592   0.018566   0.018539   0.018513     1.798990     1.796080     1.793160     1.790260     1.787360     1.784480     1.781600     1.778730     1.775880     1.773030     1.770190     1.767360     1.764540     1.761730     1.758930   -0.024408   -0.024373   -0.024355   -0.024325   -0.024284   -0.024231   -0.024161   -0.024068   -0.023947   -0.023786   -0.023577   -0.023305   -0.022951   -0.022496   -0.021914   -0.021176   -0.020255   -0.019131   -0.017789   -0.016232   -0.014515  -0.010599  -0.007048  -0.005896
  -364.0         X   0.018839   0.018812   0.018786   0.018759   0.018732     1.820240     1.817290     1.814340     1.811400     1.808470     1.805550     1.802630     1.799730     1.796840     1.793960     1.791090     1.788230     1.785370     1.782530     1.779700   -0.024703   -0.024667   -0.024649   -0.024619   -0.024578   -0.024524   -0.024453   -0.024359   -0.024236   -0.024074   -0.023862   -0.023586   -0.023228   -0.022768   -0.022179   -0.021432   -0.020500   -0.019362   -0.018003   -0.016428   -0.014690  -0.010727  -0.007132  -0.005967
  -362.0         X   0.019063   0.019036   0.019009   0.018982   0.018955     1.841810     1.838830     1.835850     1.832870     1.829900     1.826950     1.824000     1.821070     1.818140     1.815220     1.812320     1.809420     1.806530     1.803650     1.800790   -0.025003   -0.024967   -0.024949   -0.024918   -0.024876   -0.024822   -0.024750   -0.024655   -0.024530   -0.024366   -0.024152   -0.023873   -0.023510   -0.023044   -0.022448   -0.021692   -0.020749   -0.019597   -0.018222   -0.016627   -0.014868  -0.010856  -0.007218  -0.006039
  -360.0         X   0.019291   0.019263   0.019236   0.019208   0.019181     1.863730     1.860720     1.857690     1.854680     1.851680     1.848690     1.845710     1.842740     1.839770     1.836820     1.833880     1.830950     1.828030     1.825110     1.822210   -0.025307   -0.025271   -0.025253   -0.025222   -0.025179   -0.025125   -0.025052   -0.024955   -0.024829   -0.024663   -0.024446   -0.024164   -0.023797   -0.023325   -0.022722   -0.021956   -0.021002   -0.019836   -0.018444   -0.016829   -0.015049  -0.010988  -0.007306  -0.006112
  -358.0         X   0.019522   0.019494   0.019467   0.019439   0.019411     1.886000     1.882950     1.879890     1.876840     1.873800     1.870780     1.867760     1.864750     1.861750     1.858770     1.855790     1.852820     1.849860     1.846920     1.843980   -0.025617   -0.025580   -0.025562   -0.025531   -0.025488   -0.025432   -0.025358   -0.025261   -0.025133   -0.024965   -0.024745   -0.024459   -0.024088   -0.023610   -0.023000   -0.022225   -0.021258   -0.020078   -0.018669   -0.017035   -0.015232  -0.011122  -0.007394  -0.006186
  -356.0         X   0.019757   0.019729   0.019701   0.019673   0.019645     1.908630     1.905540     1.902440     1.899360     1.896280     1.893220     1.890160     1.887120     1.884080     1.881060     1.878050     1.875040     1.872050     1.869060     1.866090   -0.025932   -0.025895   -0.025876   -0.025845   -0.025801   -0.025745   -0.025670   -0.025571   -0.025442   -0.025272   -0.025049   -0.024760   -0.024384   -0.023900   -0.023282   -0.022498   -0.021520   -0.020325   -0.018898   -0.017244   -0.015419  -0.011258  -0.007484  -0.006261
  -354.0         X   0.019996   0.019967   0.019939   0.019910   0.019882     1.931620     1.928490     1.925350     1.922230     1.919120     1.916010     1.912920     1.909840     1.906770     1.903710     1.900660     1.897620     1.894590     1.891570     1.888560   -0.026252   -0.026215   -0.026195   -0.026164   -0.026119   -0.026062   -0.025987   -0.025887   -0.025756   -0.025584   -0.025359   -0.025065   -0.024685   -0.024195   -0.023570   -0.022775   -0.021785   -0.020575   -0.019131   -0.017456   -0.015609  -0.011396  -0.007576  -0.006337
  -352.0         X   0.020238   0.020210   0.020181   0.020152   0.020123     1.954980     1.951810     1.948640     1.945470     1.942320     1.939180     1.936050     1.932930     1.929820     1.926730     1.923640     1.920560     1.917490     1.914440     1.911390   -0.026578   -0.026539   -0.026520   -0.026488   -0.026443   -0.026385   -0.026309   -0.026208   -0.026075   -0.025901   -0.025673   -0.025376   -0.024991   -0.024495   -0.023862   -0.023057   -0.022055   -0.020830   -0.019368   -0.017672   -0.015802  -0.011537  -0.007669  -0.006415
  -350.0         X   0.020485   0.020456   0.020427   0.020397   0.020368     1.978710     1.975510     1.972290     1.969090     1.965900     1.962720     1.959550     1.956400     1.953250     1.950110     1.946990     1.943870     1.940770     1.937670     1.934590   -0.026908   -0.026870   -0.026850   -0.026818   -0.026772   -0.026714   -0.026636   -0.026534   -0.026400   -0.026223   -0.025992   -0.025692   -0.025302   -0.024800   -0.024158   -0.023344   -0.022329   -0.021089   -0.019609   -0.017891   -0.015998  -0.011680  -0.007764  -0.006494
  -348.0         X   0.020736   0.020706   0.020676   0.020647   0.020618     2.002830     1.999590     1.996340     1.993100     1.989870     1.986650     1.983440     1.980240     1.977060     1.973880     1.970720     1.967560     1.964420     1.961290     1.958160   -0.027245   -0.027206   -0.027186   -0.027153   -0.027107   -0.027048   -0.026969   -0.026865   -0.026730   -0.026551   -0.026317   -0.026013   -0.025618   -0.025109   -0.024460   -0.023636   -0.022608   -0.021352   -0.019853   -0.018115   -0.016198  -0.011825  -0.007860  -0.006575
  -346.0         X   0.020990   0.020960   0.020930   0.020900   0.020871     2.027350     2.024060     2.020770     2.017490     2.014220     2.010960     2.007710     2.004480     2.001250     1.998040     1.994830     1.991640     1.988460     1.985280     1.982120   -0.027586   -0.027547   -0.027527   -0.027494   -0.027447   -0.027387   -0.027308   -0.027203   -0.027065   -0.026884   -0.026648   -0.026339   -0.025939   -0.025424   -0.024767   -0.023932   -0.022891   -0.021620   -0.020102   -0.018342   -0.016400  -0.011973  -0.007958  -0.006656
  -344.0         X   0.021249   0.021219   0.021188   0.021158   0.021128     2.052270     2.048940     2.045600     2.042280     2.038970     2.035670     2.032380     2.029110     2.025840     2.022590     2.019340     2.016110     2.012890     2.009670     2.006470   -0.027934   -0.027894   -0.027874   -0.027840   -0.027793   -0.027732   -0.027652   -0.027545   -0.027406   -0.027223   -0.026983   -0.026671   -0.026266   -0.025745   -0.025079   -0.024234   -0.023180   -0.021892   -0.020355   -0.018572   -0.016606  -0.012123  -0.008057  -0.006739
  -342.0         X   0.021512   0.021481   0.021451   0.021420   0.021389     2.077590     2.074220     2.070850     2.067480     2.064130     2.060790     2.057460     2.054140     2.050840     2.047540     2.044250     2.040980     2.037720     2.034470     2.031230   -0.028288   -0.028247   -0.028227   -0.028192   -0.028145   -0.028083   -0.028002   -0.027894   -0.027753   -0.027567   -0.027325   -0.027009   -0.026598   -0.026071   -0.025396   -0.024540   -0.023473   -0.022169   -0.020612   -0.018807   -0.016816  -0.012275  -0.008158  -0.006824
  -340.0         X   0.021780   0.021748   0.021717   0.021686   0.021656     2.103330     2.099920     2.096500     2.093100     2.089700     2.086320     2.082950     2.079590     2.076240     2.072900     2.069580     2.066260     2.062960     2.059670     2.056380   -0.028647   -0.028606   -0.028586   -0.028551   -0.028503   -0.028440   -0.028358   -0.028249   -0.028106   -0.027918   -0.027672   -0.027352   -0.026936   -0.026402   -0.025719   -0.024852   -0.023771   -0.022451   -0.020874   -0.019045   -0.017029  -0.012431  -0.008261  -0.006910
  -338.0         X   0.022052   0.022020   0.021989   0.021957   0.021926     2.129500     2.126050     2.122590     2.119140     2.115700     2.112280     2.108860     2.105460     2.102070     2.098690     2.095320     2.091960     2.088620     2.085280     2.081960   -0.029013   -0.028972   -0.028951   -0.028916   -0.028866   -0.028803   -0.028720   -0.028609   -0.028465   -0.028274   -0.028025   -0.027701   -0.027280   -0.026739   -0.026047   -0.025169   -0.024074   -0.022737   -0.021140   -0.019288   -0.017246  -0.012589  -0.008366  -0.006997
  -336.0         X   0.022328   0.022296   0.022264   0.022232   0.022201     2.156110     2.152610     2.149110     2.145610     2.142130     2.138660     2.135210     2.131760     2.128330     2.124900     2.121490     2.118090     2.114710     2.111330     2.107960   -0.029385   -0.029343   -0.029322   -0.029286   -0.029237   -0.029173   -0.029088   -0.028976   -0.028830   -0.028637   -0.028385   -0.028056   -0.027630   -0.027082   -0.026381   -0.025492   -0.024383   -0.023028   -0.021411   -0.019535   -0.017467  -0.012749  -0.008472  -0.007086
