Data type: B; UNIT: nT
Number of stations: 121
Stations (m): 0.2 5.2 10.2 15.2 20.2 25.2 30.2 35.2 40.2 45.2 50.2 55.2 60.2 65.2 70.2 75.2 80.2 85.2 90.2 95.2 100.2 105.2 110.2 115.2 120.2 125.2 130.2 135.2 140.2 145.2 150.2 155.2 160.2 165.2 170.2 175.2 180.2 185.2 190.2 195.2 200.2 205.2 210.2 215.2 220.2 225.2 230.2 235.2 240.2 245.2 250.2 255.2 260.2 265.2 270.2 275.2 280.2 285.2 290.2 295.2 300.2 305.2 310.2 315.2 320.2 325.2 330.2 335.2 340.2 345.2 350.2 355.2 360.2 365.2 370.2 375.2 380.2 385.2 390.2 395.2 400.2 405.2 410.2 415.2 420.2 425.2 430.2 435.2 440.2 445.2 450.2 455.2 460.2 465.2 470.2 475.2 480.2 485.2 490.2 495.2 500.2 505.2 510.2 515.2 520.2 525.2 530.2 535.2 540.2 545.2 550.2 555.2 560.2 565.2 570.2 575.2 580.2 585.2 590.2 595.2 600.2
Channel times (ms):
   1     0.0010 
   2     0.0014 
   3     0.0020 
   4     0.0028 
   5     0.0040 
   6     0.0057 
   7     0.0080 
   8     0.0113 
   9     0.0160 
   10    0.0226 
   11    0.0320 
   12    0.0453 
   13    0.0640 
   14    0.0905 
   15    0.1280 
   16    0.1810 
   17    0.2560 
   18    0.3620 
   19    0.5120 
   20    0.7241 
   21    1.0240 
   22    1.4482 
   23    2.0480 
   24    2.8963 
   25    4.0960 
   26    5.7926 
   27    8.1920 
   28    11.5850
   29    16.3840
   30    23.1700
   31    32.7680
   32    46.3410
EM data:
Station Component      CH1            CH2            CH3            CH4            CH5            CH6            CH7            CH8            CH9           CH10           CH11           CH12           CH13           CH14           CH15           CH16           CH17           CH18           CH19           CH20           CH21           CH22           CH23           CH24           CH25           CH26           CH27           CH28           CH29           CH30           CH31           CH32      
  0.2      X     -6.18868E-01   -6.18558E-01   -6.18109E-01   -6.17535E-01   -6.16721E-01   -6.15646E-01   -6.14301E-01   -6.12533E-01   -6.10248E-01   -6.07358E-01   -6.03662E-01   -5.98986E-01   -5.93046E-01   -5.85297E-01   -5.74963E-01   -5.60976E-01   -5.41959E-01   -5.16370E-01   -4.82541E-01   -4.39048E-01   -3.85233E-01   -3.22002E-01   -2.52664E-01   -1.83376E-01   -1.21186E-01   -7.23841E-02   -3.87613E-02   -1.88827E-02   -8.30202E-03   -3.29459E-03   -1.12043E-03   -0.00000E+00  
  0.2      Y      2.45233E-01    2.45061E-01    2.44813E-01    2.44499E-01    2.44057E-01    2.43479E-01    2.42765E-01    2.41837E-01    2.40654E-01    2.39178E-01    2.37319E-01    2.34996E-01    2.32066E-01    2.28238E-01    2.23111E-01    2.16159E-01    2.06741E-01    1.94169E-01    1.77747E-01    1.56994E-01    1.31939E-01    1.03525E-01    7.39155E-02    4.64956E-02    2.45036E-02    1.00631E-02    2.55519E-03   -1.09193E-04   -6.23431E-04   -4.59608E-04   -2.19248E-04   -0.00000E+00  
  0.2      Z     -3.76779E+01   -3.76620E+01   -3.76389E+01   -3.76096E+01   -3.75680E+01   -3.75131E+01   -3.74448E+01   -3.73551E+01   -3.72397E+01   -3.70944E+01   -3.69095E+01   -3.66769E+01   -3.63825E+01   -3.59985E+01   -3.54843E+01   -3.47840E+01   -3.38258E+01   -3.25275E+01   -3.07949E+01   -2.85369E+01   -2.56877E+01   -2.22434E+01   -1.83113E+01   -1.41518E+01   -1.01251E+01   -6.63677E+00   -3.93882E+00   -2.11961E+00   -1.02318E+00   -4.35638E-01   -1.51759E-01   -0.00000E+00  
  5.2      X     -3.44569E+00   -3.44393E+00   -3.44138E+00   -3.43813E+00   -3.43354E+00   -3.42748E+00   -3.41992E+00   -3.41000E+00   -3.39724E+00   -3.38117E+00   -3.36071E+00   -3.33497E+00   -3.30240E+00   -3.25996E+00   -3.20325E+00   -3.12626E+00   -3.02137E+00   -2.88007E+00   -2.69306E+00   -2.45222E+00   -2.15351E+00   -1.80132E+00   -1.41331E+00   -1.02333E+00   -6.71238E-01   -3.93957E-01   -2.03843E-01   -9.40163E-02   -3.85328E-02   -1.43962E-02   -4.87328E-03   -0.00000E+00  
  5.2      Y     -6.11453E-01   -6.11181E-01   -6.10786E-01   -6.10282E-01   -6.09565E-01   -6.08617E-01   -6.07430E-01   -6.05868E-01   -6.03851E-01   -6.01304E-01   -5.98053E-01   -5.93956E-01   -5.88775E-01   -5.82033E-01   -5.73025E-01   -5.60762E-01   -5.43978E-01   -5.21232E-01   -4.90886E-01   -4.51381E-01   -4.01666E-01   -3.41915E-01   -2.74460E-01   -2.04505E-01   -1.38905E-01   -8.47850E-02   -4.57206E-02   -2.18782E-02   -9.29641E-03   -3.62133E-03   -1.28582E-03   -0.00000E+00  
  5.2      Z     -3.67475E+01   -3.67321E+01   -3.67098E+01   -3.66813E+01   -3.66411E+01   -3.65880E+01   -3.65218E+01   -3.64350E+01   -3.63233E+01   -3.61826E+01   -3.60035E+01   -3.57783E+01   -3.54932E+01   -3.51214E+01   -3.46234E+01   -3.39452E+01   -3.30170E+01   -3.17591E+01   -3.00800E+01   -2.78906E+01   -2.51260E+01   -2.17804E+01   -1.79556E+01   -1.39014E+01   -9.96688E+00   -6.54809E+00   -3.89539E+00   -2.10072E+00   -1.01589E+00   -4.33036E-01   -1.50896E-01   -0.00000E+00  
  10.2     X     -6.07142E+00   -6.06832E+00   -6.06383E+00   -6.05811E+00   -6.05001E+00   -6.03934E+00   -6.02603E+00   -6.00859E+00   -5.98614E+00   -5.95788E+00   -5.92194E+00   -5.87674E+00   -5.81957E+00   -5.74509E+00   -5.64555E+00   -5.51037E+00   -5.32617E+00   -5.07800E+00   -4.74952E+00   -4.32641E+00   -3.80142E+00   -3.18199E+00   -2.49880E+00   -1.81097E+00   -1.18867E+00   -6.97438E-01   -3.60089E-01   -1.65259E-01   -6.72241E-02   -2.49333E-02   -8.44008E-03   -0.00000E+00  
  10.2     Y     -1.45519E-01   -1.45477E-01   -1.45415E-01   -1.45334E-01   -1.45218E-01   -1.45063E-01   -1.44865E-01   -1.44603E-01   -1.44262E-01   -1.43827E-01   -1.43268E-01   -1.42561E-01   -1.41668E-01   -1.40510E-01   -1.38960E-01   -1.36819E-01   -1.33828E-01   -1.29669E-01   -1.23943E-01   -1.16192E-01   -1.05969E-01   -9.29996E-02   -7.74681E-02   -6.02922E-02   -4.30683E-02   -2.77721E-02   -1.58589E-02   -8.00245E-03   -3.59573E-03   -1.49672E-03   -5.64053E-04   -0.00000E+00  
  10.2     Z     -3.41207E+01   -3.41067E+01   -3.40864E+01   -3.40605E+01   -3.40239E+01   -3.39756E+01   -3.39154E+01   -3.38364E+01   -3.37348E+01   -3.36068E+01   -3.34439E+01   -3.32389E+01   -3.29795E+01   -3.26410E+01   -3.21877E+01   -3.15701E+01   -3.07245E+01   -2.95778E+01   -2.80457E+01   -2.60454E+01   -2.35146E+01   -2.04435E+01   -1.69188E+01   -1.31628E+01   -9.49294E+00   -6.27774E+00   -3.76050E+00   -2.04108E+00   -9.92583E-01   -4.24651E-01   -1.48089E-01   -0.00000E+00  
  15.2     X     -6.06066E+00   -6.05756E+00   -6.05308E+00   -6.04738E+00   -6.03930E+00   -6.02865E+00   -6.01537E+00   -5.99796E+00   -5.97556E+00   -5.94736E+00   -5.91150E+00   -5.86640E+00   -5.80935E+00   -5.73503E+00   -5.63571E+00   -5.50082E+00   -5.31701E+00   -5.06937E+00   -4.74157E+00   -4.31935E+00   -3.79542E+00   -3.17721E+00   -2.49531E+00   -1.80869E+00   -1.18737E+00   -6.96814E-01   -3.59843E-01   -1.65178E-01   -6.72017E-02   -2.49275E-02   -8.43872E-03   -0.00000E+00  
  15.2     Y     -1.66335E-01   -1.66281E-01   -1.66201E-01   -1.66098E-01   -1.65951E-01   -1.65755E-01   -1.65508E-01   -1.65183E-01   -1.64761E-01   -1.64228E-01   -1.63546E-01   -1.62687E-01   -1.61604E-01   -1.60198E-01   -1.58312E-01   -1.55708E-01   -1.52082E-01   -1.47064E-01   -1.40196E-01   -1.30969E-01   -1.18910E-01   -1.03772E-01   -8.58543E-02   -6.62900E-02   -4.69267E-02   -2.99662E-02   -1.69346E-02   -8.45745E-03   -3.76068E-03   -1.55171E-03   -5.82568E-04   -0.00000E+00  
  15.2     Z     -3.34422E+01   -3.34286E+01   -3.34089E+01   -3.33838E+01   -3.33482E+01   -3.33013E+01   -3.32428E+01   -3.31661E+01   -3.30673E+01   -3.29429E+01   -3.27847E+01   -3.25855E+01   -3.23334E+01   -3.20045E+01   -3.15639E+01   -3.09635E+01   -3.01415E+01   -2.90263E+01   -2.75358E+01   -2.55885E+01   -2.31227E+01   -2.01266E+01   -1.66819E+01   -1.30027E+01   -9.39744E+00   -6.22835E+00   -3.73887E+00   -2.03290E+00   -9.89936E-01   -4.23841E-01   -1.47841E-01   -0.00000E+00  
  20.2     X     -9.18428E+00   -9.17959E+00   -9.17280E+00   -9.16414E+00   -9.15190E+00   -9.13575E+00   -9.11563E+00   -9.08925E+00   -9.05530E+00   -9.01258E+00   -8.95825E+00   -8.88994E+00   -8.80356E+00   -8.69103E+00   -8.54066E+00   -8.33645E+00   -8.05823E+00   -7.68344E+00   -7.18746E+00   -6.54871E+00   -5.75617E+00   -4.82085E+00   -3.78859E+00   -2.74806E+00   -1.80506E+00   -1.05924E+00   -5.46324E-01   -2.50051E-01   -1.01291E-01   -3.74149E-02   -1.26659E-02   -0.00000E+00  
  20.2     Y     -2.48769E-01   -2.48674E-01   -2.48536E-01   -2.48359E-01   -2.48107E-01   -2.47773E-01   -2.47357E-01   -2.46810E-01   -2.46108E-01   -2.45225E-01   -2.44103E-01   -2.42696E-01   -2.40923E-01   -2.38617E-01   -2.35518E-01   -2.31258E-01   -2.25360E-01   -2.17268E-01   -2.06308E-01   -1.91767E-01   -1.73038E-01   -1.49897E-01   -1.22941E-01   -9.39690E-02   -6.57241E-02   -4.13802E-02   -2.30017E-02   -1.12827E-02   -4.91067E-03   -1.97494E-03   -7.27825E-04   -0.00000E+00  
  20.2     Z     -3.46677E+01   -3.46536E+01   -3.46332E+01   -3.46071E+01   -3.45702E+01   -3.45215E+01   -3.44608E+01   -3.43812E+01   -3.42786E+01   -3.41495E+01   -3.39852E+01   -3.37785E+01   -3.35168E+01   -3.31754E+01   -3.27181E+01   -3.20950E+01   -3.12418E+01   -3.00844E+01   -2.85374E+01   -2.65164E+01   -2.39571E+01   -2.08472E+01   -1.72714E+01   -1.34520E+01   -9.71036E+00   -6.42394E+00   -3.84646E+00   -2.08500E+00   -1.01208E+00   -4.32264E-01   -1.50741E-01   -0.00000E+00  
  25.2     X     -1.05118E+01   -1.05065E+01   -1.04989E+01   -1.04891E+01   -1.04753E+01   -1.04570E+01   -1.04343E+01   -1.04045E+01   -1.03661E+01   -1.03178E+01   -1.02564E+01   -1.01792E+01   -1.00815E+01   -9.95433E+00   -9.78435E+00   -9.55350E+00   -9.23891E+00   -8.81504E+00   -8.25385E+00   -7.53058E+00   -6.63205E+00   -5.56951E+00   -4.39317E+00   -3.20188E+00   -2.11548E+00   -1.24942E+00   -6.48657E-01   -2.98534E-01   -1.21469E-01   -4.49768E-02   -1.52588E-02   -0.00000E+00  
  25.2     Y      5.83394E-02    5.82887E-02    5.82159E-02    5.81239E-02    5.79945E-02    5.78242E-02    5.76112E-02    5.73297E-02    5.69633E-02    5.64967E-02    5.58970E-02    5.51344E-02    5.41611E-02    5.28926E-02    5.12217E-02    4.90102E-02    4.60867E-02    4.22814E-02    3.74627E-02    3.16091E-02    2.48841E-02    1.77045E-02    1.07326E-02    4.82189E-03    6.40082E-04   -1.46837E-03   -1.88608E-03   -1.39751E-03   -8.27596E-04   -4.49374E-04   -2.07657E-04   -0.00000E+00  
  25.2     Z     -3.08001E+01   -3.07881E+01   -3.07706E+01   -3.07484E+01   -3.07169E+01   -3.06754E+01   -3.06235E+01   -3.05556E+01   -3.04680E+01   -3.03578E+01   -3.02174E+01   -3.00408E+01   -2.98172E+01   -2.95253E+01   -2.91342E+01   -2.86009E+01   -2.78700E+01   -2.68772E+01   -2.55475E+01   -2.38054E+01   -2.15906E+01   -1.88846E+01   -1.57501E+01   -1.23691E+01   -9.01673E+00   -6.02968E+00   -3.65103E+00   -1.99942E+00   -9.79028E-01   -4.20497E-01   -1.46807E-01   -0.00000E+00  
  30.2     X     -1.15710E+01   -1.15651E+01   -1.15567E+01   -1.15460E+01   -1.15308E+01   -1.15108E+01   -1.14858E+01   -1.14530E+01   -1.14109E+01   -1.13579E+01   -1.12904E+01   -1.12056E+01   -1.10984E+01   -1.09587E+01   -1.07721E+01   -1.05186E+01   -1.01732E+01   -9.70770E+00   -9.09143E+00   -8.29710E+00   -7.31006E+00   -6.14237E+00   -4.84873E+00   -3.53727E+00   -2.33959E+00   -1.38322E+00   -7.18727E-01   -3.30911E-01   -1.34643E-01   -4.98401E-02   -1.69142E-02   -0.00000E+00  
  30.2     Y      1.16566E-01    1.16476E-01    1.16348E-01    1.16185E-01    1.15955E-01    1.15651E-01    1.15271E-01    1.14769E-01    1.14118E-01    1.13291E-01    1.12232E-01    1.10890E-01    1.09184E-01    1.06965E-01    1.04032E-01    1.00121E-01    9.49040E-02    8.80455E-02    7.92521E-02    6.83960E-02    5.56617E-02    4.17107E-02    2.77419E-02    1.54302E-02    6.20245E-03    8.59705E-04   -1.19709E-03   -1.28628E-03   -8.50517E-04   -4.72561E-04   -2.19778E-04   -0.00000E+00  
  30.2     Z     -3.01203E+01   -3.01087E+01   -3.00919E+01   -3.00705E+01   -3.00401E+01   -3.00001E+01   -2.99502E+01   -2.98847E+01   -2.98003E+01   -2.96941E+01   -2.95588E+01   -2.93885E+01   -2.91729E+01   -2.88915E+01   -2.85143E+01   -2.79999E+01   -2.72945E+01   -2.63358E+01   -2.50507E+01   -2.33651E+01   -2.12187E+01   -1.85906E+01   -1.55376E+01   -1.22326E+01   -8.94177E+00   -5.99592E+00   -3.63962E+00   -1.99692E+00   -9.79076E-01   -4.20783E-01   -1.46945E-01   -0.00000E+00  
  35.2     X     -1.28114E+01   -1.28050E+01   -1.27958E+01   -1.27840E+01   -1.27673E+01   -1.27453E+01   -1.27179E+01   -1.26819E+01   -1.26356E+01   -1.25774E+01   -1.25032E+01   -1.24101E+01   -1.22922E+01   -1.21387E+01   -1.19336E+01   -1.16551E+01   -1.12754E+01   -1.07638E+01   -1.00863E+01   -9.21256E+00   -8.12604E+00   -6.83902E+00   -5.41038E+00   -3.95783E+00   -2.62620E+00   -1.55786E+00   -8.11987E-01   -3.74676E-01   -1.52663E-01   -5.65351E-02   -1.92076E-02   -0.00000E+00  
  35.2     Y      4.77874E-04    4.61668E-04    4.38619E-04    4.09604E-04    3.68503E-04    3.13217E-04    2.41440E-04    1.41940E-04    5.41588E-06   -1.77398E-04   -4.22862E-04   -7.47010E-04   -1.16974E-03   -1.71843E-03   -2.41880E-03   -3.30431E-03   -4.42036E-03   -5.79873E-03   -7.42123E-03   -9.18195E-03   -1.08587E-02   -1.21091E-02   -1.25497E-02   -1.18639E-02   -1.00440E-02   -7.41348E-03   -4.64553E-03   -2.44353E-03   -1.13864E-03   -5.28945E-04   -2.34040E-04   -0.00000E+00  
  35.2     Z     -2.96370E+01   -2.96258E+01   -2.96097E+01   -2.95890E+01   -2.95598E+01   -2.95212E+01   -2.94731E+01   -2.94100E+01   -2.93287E+01   -2.92262E+01   -2.90958E+01   -2.89316E+01   -2.87237E+01   -2.84522E+01   -2.80883E+01   -2.75917E+01   -2.69103E+01   -2.59834E+01   -2.47391E+01   -2.31044E+01   -2.10175E+01   -1.84542E+01   -1.54645E+01   -1.22118E+01   -8.95503E+00   -6.02252E+00   -3.66448E+00   -2.01341E+00   -9.87745E-01   -4.24489E-01   -1.48273E-01   -0.00000E+00  
  40.2     X     -1.51890E+01   -1.51815E+01   -1.51707E+01   -1.51570E+01   -1.51375E+01   -1.51118E+01   -1.50797E+01   -1.50377E+01   -1.49836E+01   -1.49155E+01   -1.48288E+01   -1.47198E+01   -1.45820E+01   -1.44025E+01   -1.41626E+01   -1.38368E+01   -1.33926E+01   -1.27936E+01   -1.19999E+01   -1.09752E+01   -9.69891E+00   -8.18353E+00   -6.49568E+00   -4.77147E+00   -3.18140E+00   -1.89666E+00   -9.93232E-01   -4.59901E-01   -1.87828E-01   -6.96180E-02   -2.36900E-02   -0.00000E+00  
  40.2     Y     -3.47839E-02   -3.47826E-02   -3.47804E-02   -3.47776E-02   -3.47740E-02   -3.47711E-02   -3.47712E-02   -3.47782E-02   -3.47974E-02   -3.48348E-02   -3.48977E-02   -3.49948E-02   -3.51312E-02   -3.53048E-02   -3.54998E-02   -3.56953E-02   -3.58696E-02   -3.59786E-02   -3.59178E-02   -3.54991E-02   -3.44402E-02   -3.23912E-02   -2.90547E-02   -2.43438E-02   -1.86033E-02   -1.26052E-02   -7.34618E-03   -3.63746E-03   -1.58596E-03   -6.80025E-04   -2.86247E-04   -0.00000E+00  
  40.2     Z     -2.79477E+01   -2.79376E+01   -2.79228E+01   -2.79041E+01   -2.78775E+01   -2.78424E+01   -2.77986E+01   -2.77412E+01   -2.76672E+01   -2.75740E+01   -2.74553E+01   -2.73059E+01   -2.71165E+01   -2.68692E+01   -2.65375E+01   -2.60844E+01   -2.54622E+01   -2.46142E+01   -2.34737E+01   -2.19706E+01   -2.00443E+01   -1.76658E+01   -1.48732E+01   -1.18101E+01   -8.71445E+00   -5.89808E+00   -3.61056E+00   -1.99362E+00   -9.81705E-01   -4.22776E-01   -1.47758E-01   -0.00000E+00  
  45.2     X     -1.56887E+01   -1.56812E+01   -1.56703E+01   -1.56564E+01   -1.56368E+01   -1.56109E+01   -1.55786E+01   -1.55362E+01   -1.54817E+01   -1.54130E+01   -1.53257E+01   -1.52158E+01   -1.50768E+01   -1.48957E+01   -1.46536E+01   -1.43246E+01   -1.38758E+01   -1.32701E+01   -1.24662E+01   -1.14263E+01   -1.01275E+01   -8.57917E+00   -6.84542E+00   -5.06156E+00   -3.40171E+00   -2.04596E+00   -1.08145E+00   -5.05011E-01   -2.07800E-01   -7.73841E-02   -2.63987E-02   -0.00000E+00  
  45.2     Y      7.70464E-02    7.69955E-02    7.69220E-02    7.68283E-02    7.66947E-02    7.65161E-02    7.62887E-02    7.59828E-02    7.55773E-02    7.50524E-02    7.43677E-02    7.34877E-02    7.23611E-02    7.08987E-02    6.89827E-02    6.64481E-02    6.30789E-02    5.86508E-02    5.29672E-02    4.59372E-02    3.76675E-02    2.85703E-02    1.94106E-02    1.12787E-02    5.13025E-03    1.51779E-03    4.16721E-05   -2.07267E-04   -1.74554E-04   -1.53224E-04   -1.07548E-04   -0.00000E+00  
  45.2     Z     -2.47283E+01   -2.47199E+01   -2.47077E+01   -2.46921E+01   -2.46700E+01   -2.46409E+01   -2.46046E+01   -2.45570E+01   -2.44956E+01   -2.44182E+01   -2.43197E+01   -2.41955E+01   -2.40381E+01   -2.38324E+01   -2.35562E+01   -2.31784E+01   -2.26585E+01   -2.19482E+01   -2.09889E+01   -1.97183E+01   -1.80787E+01   -1.60359E+01   -1.36103E+01   -1.09123E+01   -8.14160E+00   -5.57532E+00   -3.45317E+00   -1.92639E+00   -9.56552E-01   -4.14072E-01   -1.44862E-01   -0.00000E+00  
  50.2     X     -1.56177E+01   -1.56104E+01   -1.55998E+01   -1.55863E+01   -1.55672E+01   -1.55420E+01   -1.55105E+01   -1.54693E+01   -1.54162E+01   -1.53493E+01   -1.52642E+01   -1.51572E+01   -1.50217E+01   -1.48453E+01   -1.46093E+01   -1.42884E+01   -1.38504E+01   -1.32587E+01   -1.24724E+01   -1.14533E+01   -1.01772E+01   -8.65068E+00   -6.93327E+00   -5.15525E+00   -3.48816E+00   -2.11386E+00   -1.12637E+00   -5.29919E-01   -2.19505E-01   -8.20936E-02   -2.80607E-02   -0.00000E+00  
  50.2     Y      1.23574E-01    1.23502E-01    1.23399E-01    1.23267E-01    1.23078E-01    1.22827E-01    1.22510E-01    1.22085E-01    1.21525E-01    1.20804E-01    1.19868E-01    1.18670E-01    1.17139E-01    1.15150E-01    1.12531E-01    1.09037E-01    1.04350E-01    9.81238E-02    9.00272E-02    7.98389E-02    6.75828E-02    5.37047E-02    3.92060E-02    2.56649E-02    1.46292E-02    7.17778E-03    3.06059E-03    1.25091E-03    4.56606E-04    9.32193E-05   -2.35704E-05   -0.00000E+00  
  50.2     Z     -2.23355E+01   -2.23283E+01   -2.23180E+01   -2.23047E+01   -2.22859E+01   -2.22612E+01   -2.22303E+01   -2.21897E+01   -2.21374E+01   -2.20715E+01   -2.19875E+01   -2.18817E+01   -2.17475E+01   -2.15719E+01   -2.13360E+01   -2.10129E+01   -2.05674E+01   -1.99569E+01   -1.91297E+01   -1.80287E+01   -1.65989E+01   -1.48029E+01   -1.26490E+01   -1.02235E+01   -7.69812E+00   -5.32320E+00   -3.32926E+00   -1.87324E+00   -9.36649E-01   -4.07201E-01   -1.42564E-01   -0.00000E+00  
  55.2     X     -1.62661E+01   -1.62586E+01   -1.62477E+01   -1.62338E+01   -1.62142E+01   -1.61883E+01   -1.61561E+01   -1.61137E+01   -1.60592E+01   -1.59906E+01   -1.59032E+01   -1.57932E+01   -1.56541E+01   -1.54727E+01   -1.52302E+01   -1.49003E+01   -1.44499E+01   -1.38409E+01   -1.30309E+01   -1.19798E+01   -1.06613E+01   -9.08027E+00   -7.29602E+00   -5.44138E+00   -3.69422E+00   -2.24624E+00   -1.20048E+00   -5.65918E-01   -2.34688E-01   -8.77936E-02   -3.00373E-02   -0.00000E+00  
  55.2     Y      5.81244E-03    5.81314E-03    5.81406E-03    5.81478E-03    5.81443E-03    5.81081E-03    5.80068E-03    5.77829E-03    5.73603E-03    5.66543E-03    5.55489E-03    5.39219E-03    5.16908E-03    4.88127E-03    4.52954E-03    4.10195E-03    3.56523E-03    2.88251E-03    2.03461E-03    1.03421E-03   -5.96807E-05   -1.12733E-03   -1.99405E-03   -2.45265E-03   -2.37059E-03   -1.76692E-03   -9.31384E-04   -2.80900E-04   -4.39902E-05   -6.09921E-05   -7.22930E-05   -0.00000E+00  
  55.2     Z     -2.07963E+01   -2.07901E+01   -2.07811E+01   -2.07697E+01   -2.07534E+01   -2.07320E+01   -2.07052E+01   -2.06701E+01   -2.06248E+01   -2.05676E+01   -2.04948E+01   -2.04030E+01   -2.02865E+01   -2.01340E+01   -1.99288E+01   -1.96471E+01   -1.92576E+01   -1.87221E+01   -1.79927E+01   -1.70156E+01   -1.57361E+01   -1.41123E+01   -1.21405E+01   -9.88831E+00   -7.50747E+00   -5.23344E+00   -3.29708E+00   -1.86549E+00   -9.36383E-01   -4.07868E-01   -1.42873E-01   -0.00000E+00  
