Data type: dB/dt; UNIT: nT/s
Number of stations: 121
Stations (m): 0.2 5.2 10.2 15.2 20.2 25.2 30.2 35.2 40.2 45.2 50.2 55.2 60.2 65.2 70.2 75.2 80.2 85.2 90.2 95.2 100.2 105.2 110.2 115.2 120.2 125.2 130.2 135.2 140.2 145.2 150.2 155.2 160.2 165.2 170.2 175.2 180.2 185.2 190.2 195.2 200.2 205.2 210.2 215.2 220.2 225.2 230.2 235.2 240.2 245.2 250.2 255.2 260.2 265.2 270.2 275.2 280.2 285.2 290.2 295.2 300.2 305.2 310.2 315.2 320.2 325.2 330.2 335.2 340.2 345.2 350.2 355.2 360.2 365.2 370.2 375.2 380.2 385.2 390.2 395.2 400.2 405.2 410.2 415.2 420.2 425.2 430.2 435.2 440.2 445.2 450.2 455.2 460.2 465.2 470.2 475.2 480.2 485.2 490.2 495.2 500.2 505.2 510.2 515.2 520.2 525.2 530.2 535.2 540.2 545.2 550.2 555.2 560.2 565.2 570.2 575.2 580.2 585.2 590.2 595.2 600.2
Channel times (ms):
   1     0.0010 
   2     0.0014 
   3     0.0020 
   4     0.0028 
   5     0.0040 
   6     0.0057 
   7     0.0080 
   8     0.0113 
   9     0.0160 
   10    0.0226 
   11    0.0320 
   12    0.0453 
   13    0.0640 
   14    0.0905 
   15    0.1280 
   16    0.1810 
   17    0.2560 
   18    0.3620 
   19    0.5120 
   20    0.7241 
   21    1.0240 
   22    1.4482 
   23    2.0480 
   24    2.8963 
   25    4.0960 
   26    5.7926 
   27    8.1920 
   28    11.5850
   29    16.3840
   30    23.1700
   31    32.7680
   32    46.3410
EM data:
Station Component      CH1            CH2            CH3            CH4            CH5            CH6            CH7            CH8            CH9           CH10           CH11           CH12           CH13           CH14           CH15           CH16           CH17           CH18           CH19           CH20           CH21           CH22           CH23           CH24           CH25           CH26           CH27           CH28           CH29           CH30           CH31           CH32      
  0.2      X      2.83750E+04    2.68609E+04    2.56665E+04    2.45234E+04    2.30031E+04    2.10298E+04    1.86441E+04    1.57630E+04    1.23674E+04    9.03724E+03    5.86844E+03    3.34993E+03    1.66402E+03    7.16315E+02    2.73726E+02    9.38945E+01    2.92918E+01    8.25407E+00    1.92529E+00    3.11644E-01    2.44498E-02    7.33916E-04    5.02723E-06    1.81452E-06    1.29757E-06    1.38778E-08    1.63064E-07   -3.60822E-07   -9.71445E-08    6.10623E-07    1.37390E-06    2.39392E-07  
  0.2      Y     -1.40546E+04   -1.33342E+04   -1.27224E+04   -1.20799E+04   -1.12062E+04   -1.00814E+04   -8.74229E+03   -7.16017E+03   -5.35320E+03   -3.65723E+03   -2.13993E+03   -1.03895E+03   -3.97170E+02   -1.08613E+02   -1.68163E+01    1.70126E+00    2.85875E+00    1.77760E+00    7.02503E-01    1.49721E-01    1.32110E-02    4.11306E-04    2.63201E-06    1.13494E-06    3.17454E-07   -1.31405E-07    4.46691E-07   -2.06866E-07    1.35872E-06    1.11890E-06    9.22873E-07   -1.86483E-07  
  0.2      Z      1.41067E+06    1.34189E+06    1.29068E+06    1.24144E+06    1.17487E+06    1.08777E+06    9.81500E+05    8.51244E+05    6.93936E+05    5.33731E+05    3.72573E+05    2.33795E+05    1.30368E+05    6.38958E+04    2.77974E+04    1.07741E+04    3.77020E+03    1.17014E+03    2.86870E+02    4.66668E+01    3.63304E+00    1.08716E-01    7.16614E-04    7.09502E-07    2.01748E-06    2.03136E-06    6.53123E-07    8.59555E-07   -4.67508E-07    4.22405E-07    1.78677E-07    8.87311E-07  
  5.2      X      1.55673E+05    1.47678E+05    1.41467E+05    1.35367E+05    1.27124E+05    1.16396E+05    1.03415E+05    8.77075E+04    6.91253E+04    5.07884E+04    3.31852E+04    1.90303E+04    9.43228E+03    3.98540E+03    1.45332E+03    4.60296E+02    1.30206E+02    3.36826E+01    7.45222E+00    1.17690E+00    9.13742E-02    2.73529E-03    1.78416E-05    1.76421E-06    1.00961E-06   -5.36030E-07    6.93889E-08   -3.81639E-08   -6.59195E-07    3.90313E-07    1.12063E-06   -1.54390E-07  
  5.2      Y      2.47424E+04    2.35059E+04    2.26057E+04    2.17483E+04    2.05798E+04    1.90381E+04    1.71414E+04    1.47964E+04    1.19438E+04    9.03233E+03    6.12464E+03    3.67414E+03    1.91860E+03    8.56642E+02    3.27809E+02    1.07503E+02    3.16562E+01    8.96670E+00    2.25775E+00    3.92930E-01    3.20221E-02    9.73896E-04    6.21779E-06    1.34625E-06    3.55944E-07   -9.52472E-08    4.22514E-07    3.51282E-07    1.59416E-06    9.66512E-07    5.03395E-07   -4.83446E-07  
  5.2      Z      1.36609E+06    1.29958E+06    1.25015E+06    1.20269E+06    1.13854E+06    1.05460E+06    9.52169E+05    8.26568E+05    6.74753E+05    5.19918E+05    3.63815E+05    2.28975E+05    1.28099E+05    6.29942E+04    2.74902E+04    1.06835E+04    3.74631E+03    1.16432E+03    2.85633E+02    4.64749E+01    3.61823E+00    1.08274E-01    7.13172E-04    5.53594E-07    2.06649E-06    1.72735E-06    7.48967E-07    7.78457E-07   -3.43909E-07    2.20527E-07    2.78423E-07    3.38705E-07  
  10.2     X      2.73248E+05    2.59268E+05    2.48420E+05    2.37737E+05    2.23283E+05    2.04476E+05    1.81732E+05    1.54223E+05    1.21676E+05    8.95338E+04    5.86236E+04    3.36978E+04    1.67347E+04    7.07255E+03    2.57093E+03    8.07966E+02    2.25963E+02    5.78019E+01    1.26943E+01    1.99773E+00    1.54872E-01    4.63485E-03    3.04479E-05    1.38431E-06    8.56953E-07   -6.38378E-07    4.51028E-08   -2.42861E-08   -8.88178E-07    3.53884E-07    1.27676E-06   -2.77556E-08  
  10.2     Y      4.26389E+03    4.08635E+03    4.00414E+03    3.94382E+03    3.84813E+03    3.69813E+03    3.48059E+03    3.16377E+03    2.71219E+03    2.18116E+03    1.58263E+03    1.02116E+03    5.76461E+02    2.78373E+02    1.13876E+02    3.93282E+01    1.24240E+01    4.03082E+00    1.17453E+00    2.22857E-01    1.88608E-02    5.80501E-04    3.73746E-06    9.97900E-07    2.42428E-07    1.09721E-07    5.10442E-07    2.34621E-07    1.70740E-06    1.07076E-06    8.89046E-07   -2.24213E-07  
  10.2     Z      1.24357E+06    1.18332E+06    1.13877E+06    1.09614E+06    1.03855E+06    9.63181E+05    8.71139E+05    7.58118E+05    6.21175E+05    4.80954E+05    3.38756E+05    2.14921E+05    1.21335E+05    6.02411E+04    2.65310E+04    1.03958E+04    3.66958E+03    1.14548E+03    2.81598E+02    4.58458E+01    3.56959E+00    1.06818E-01    7.03405E-04    4.49293E-07    1.61503E-06    1.55605E-06    4.65773E-07    6.74807E-07   -6.48787E-07    7.28584E-08    3.53016E-07    3.92048E-07  
  15.2     X      2.72657E+05    2.58711E+05    2.47889E+05    2.37233E+05    2.22813E+05    2.04051E+05    1.81361E+05    1.53916E+05    1.21444E+05    8.93733E+04    5.85279E+04    3.36499E+04    1.67151E+04    7.06622E+03    2.56929E+03    8.07621E+02    2.25902E+02    5.77933E+01    1.26933E+01    1.99761E+00    1.54863E-01    4.63461E-03    3.04479E-05    1.33921E-06    7.70217E-07   -6.66134E-07    2.77556E-08   -1.38778E-08   -9.36751E-07    2.70617E-07    1.23512E-06   -2.77556E-08  
  15.2     Y      5.18275E+03    4.96865E+03    4.85839E+03    4.76598E+03    4.62351E+03    4.41085E+03    4.11589E+03    3.70364E+03    3.13755E+03    2.49264E+03    1.78472E+03    1.13576E+03    6.32245E+02    3.01138E+02    1.21613E+02    4.14865E+01    1.29355E+01    4.14231E+00    1.19676E+00    2.26226E-01    1.91186E-02    5.88259E-04    3.81466E-06    7.82360E-07   -1.04083E-07    1.21431E-08    2.48065E-07    2.35922E-07    1.62544E-06    7.42462E-07    6.52256E-07   -1.49186E-07  
  15.2     Z      1.20859E+06    1.15016E+06    1.10705E+06    1.06587E+06    1.01027E+06    9.37483E+05    8.48569E+05    7.39318E+05    6.06785E+05    4.70821E+05    3.32551E+05    2.11677E+05    1.19919E+05    5.97347E+04    2.63811E+04    1.03588E+04    3.66176E+03    1.14397E+03    2.81327E+02    4.58063E+01    3.56656E+00    1.06728E-01    7.02938E-04    4.51028E-07    1.31839E-06    1.33227E-06    5.51642E-07    4.89192E-07   -8.63892E-07   -1.83881E-07    4.37150E-07    2.60209E-07  
  20.2     X      4.12813E+05    3.91665E+05    3.75241E+05    3.59051E+05    3.37154E+05    3.08701E+05    2.74345E+05    2.32850E+05    1.83809E+05    1.35394E+05    8.87966E+04    5.11420E+04    2.54402E+04    1.07569E+04    3.90372E+03    1.22157E+03    3.39466E+02    8.62797E+01    1.88667E+01    2.96320E+00    2.29539E-01    6.86828E-03    4.53526E-05    1.41553E-06    9.29812E-07   -6.93889E-07    8.32667E-08    6.93889E-08   -1.48492E-06    3.33067E-07    1.41553E-06    1.66533E-07  
  20.2     Y      8.50244E+03    8.13903E+03    7.91598E+03    7.70638E+03    7.40045E+03    6.97321E+03    6.41705E+03    5.68601E+03    4.73730E+03    3.70573E+03    2.61247E+03    1.63630E+03    8.94920E+02    4.17918E+02    1.65495E+02    5.53802E+01    1.67690E+01    5.10682E+00    1.40680E+00    2.59162E-01    2.16665E-02    6.63969E-04    4.19283E-06    4.05925E-07    2.68882E-07    3.19189E-07    1.05818E-07   -1.85615E-07    1.66013E-06    6.93889E-07    3.74700E-07   -2.04697E-07  
  20.2     Z      1.25444E+06    1.19376E+06    1.14900E+06    1.10625E+06    1.04853E+06    9.72991E+05    8.80734E+05    7.67388E+05    6.29877E+05    4.88759E+05    3.45168E+05    2.19571E+05    1.24212E+05    6.17177E+04    2.71595E+04    1.06185E+04    3.73746E+03    1.16385E+03    2.85746E+02    4.65031E+01    3.62054E+00    1.08342E-01    7.13513E-04    5.75928E-07    1.26288E-06    1.38778E-06    6.10623E-07    3.67761E-07   -8.32667E-07    1.59595E-07    6.45317E-07    3.46945E-07  
  25.2     X      4.66641E+05    4.42762E+05    4.24256E+05    4.06043E+05    3.81431E+05    3.49476E+05    3.10915E+05    2.64353E+05    2.09287E+05    1.54804E+05    1.02136E+05    5.92781E+04    2.97478E+04    1.26917E+04    4.64235E+03    1.46143E+03    4.07719E+02    1.03867E+02    2.27367E+01    3.57159E+00    2.76635E-01    8.27738E-03    5.48381E-05    1.56819E-06    8.60423E-07   -5.75928E-07    9.02056E-08    1.94289E-07   -1.02002E-06    4.09395E-07    1.40860E-06    4.30211E-07  
  25.2     Y     -4.59957E+03   -4.28006E+03   -3.98058E+03   -3.68677E+03   -3.31842E+03   -2.87323E+03   -2.37860E+03   -1.84041E+03   -1.28192E+03   -8.07798E+02   -4.21502E+02   -1.64756E+02   -3.15516E+01    1.26772E+01    1.38249E+01    6.68041E+00    2.97600E+00    1.55989E+00    6.27168E-01    1.36591E-01    1.21736E-02    3.80085E-04    2.20657E-06    5.65520E-07    8.67362E-08    2.84495E-07   -2.04697E-07   -1.49186E-07    1.51268E-06    5.06539E-07    3.46945E-08   -5.65520E-07  
  25.2     Z      1.07272E+06    1.02142E+06    9.84003E+05    9.48552E+05    9.00735E+05    8.38055E+05    7.61302E+05    6.66632E+05    5.51087E+05    4.31477E+05    3.08317E+05    1.98901E+05    1.14278E+05    5.76929E+04    2.57697E+04    1.02071E+04    3.62949E+03    1.13774E+03    2.80206E+02    4.56420E+01    3.55398E+00    1.06352E-01    7.00653E-04    8.04912E-07    9.03791E-07    1.24727E-06    8.25728E-07    4.97866E-07   -9.55833E-07    0.00000E+00    9.12465E-07    4.37150E-07  
  30.2     X      5.12419E+05    4.86189E+05    4.65867E+05    4.45871E+05    4.18860E+05    3.83804E+05    3.41519E+05    2.90474E+05    2.30113E+05    1.70367E+05    1.12557E+05    6.54347E+04    3.28944E+04    1.40550E+04    5.14572E+03    1.62023E+03    4.51833E+02    1.15023E+02    2.51633E+01    3.95137E+00    3.06001E-01    9.15612E-03    6.09512E-05    1.52656E-06    1.08247E-06   -2.77556E-08    4.44089E-07    5.27356E-07   -8.60423E-07    6.38378E-07    1.85962E-06    4.44089E-07  
  30.2     Y     -8.07149E+03   -7.54949E+03   -7.08307E+03   -6.62315E+03   -6.03341E+03   -5.30590E+03   -4.47824E+03   -3.54999E+03   -2.54970E+03   -1.66456E+03   -9.14688E+02   -3.98747E+02   -1.18563E+02   -1.07641E+01    9.77886E+00    6.50274E+00    3.13376E+00    1.63761E+00    6.49841E-01    1.40575E-01    1.24927E-02    3.88988E-04    2.65391E-06    2.46548E-07   -2.86446E-07    1.28586E-07   -3.01625E-07   -5.92408E-07    1.62891E-06    4.59919E-07   -1.31622E-07   -8.04912E-07  
  30.2     Z      1.03447E+06    9.85246E+05    9.49517E+05    9.15786E+05    8.70300E+05    8.10624E+05    7.37455E+05    6.47033E+05    5.36364E+05    4.21358E+05    3.02343E+05    1.95953E+05    1.13109E+05    5.73412E+04    2.56953E+04    1.01997E+04    3.63132E+03    1.13897E+03    2.80568E+02    4.57035E+01    3.55880E+00    1.06497E-01    7.01759E-04    1.03997E-06    1.21257E-06    1.34571E-06    1.16682E-06    1.32728E-06   -7.86263E-07    4.43222E-07    1.67011E-06    6.07587E-07  
  35.2     X      5.63089E+05    5.34270E+05    5.11970E+05    4.90056E+05    4.60475E+05    4.22107E+05    3.75851E+05    3.20028E+05    2.53992E+05    1.88538E+05    1.25025E+05    7.30175E+04    3.68903E+04    1.58365E+04    5.81889E+03    1.83608E+03    5.12406E+02    1.30440E+02    2.85307E+01    4.47945E+00    3.46862E-01    1.03785E-02    6.90836E-05    1.66533E-06    1.09635E-06    6.93889E-07    5.96745E-07    6.10623E-07   -7.21645E-07    4.44089E-07    1.79023E-06    1.23512E-06  
  35.2     Y     -1.94409E+03   -1.74430E+03   -1.54386E+03   -1.35931E+03   -1.14265E+03   -8.92350E+02   -6.28521E+02   -3.62786E+02   -1.18900E+02    4.97910E+01    1.43261E+02    1.60829E+02    1.27759E+02    7.61683E+01    3.38558E+01    1.14238E+01    3.77720E+00    1.64911E+00    6.32791E-01    1.36791E-01    1.21781E-02    3.79742E-04    2.52576E-06   -2.36790E-07    3.31332E-07    4.10262E-07    1.40513E-07   -1.56125E-07    1.86049E-06    7.14706E-07   -2.59341E-07   -1.07987E-06  
  35.2     Z      9.98052E+05    9.50948E+05    9.17039E+05    8.85201E+05    8.42271E+05    7.85850E+05    7.16496E+05    6.30489E+05    5.24721E+05    4.14129E+05    2.98814E+05    1.94816E+05    1.13086E+05    5.75932E+04    2.58859E+04    1.02893E+04    3.66355E+03    1.14858E+03    2.82839E+02    4.60677E+01    3.58707E+00    1.07341E-01    7.07874E-04    1.24499E-06    4.95591E-07    9.53558E-07    3.29056E-07    1.07011E-07   -1.16975E-06    1.48642E-07    7.87026E-07    7.92674E-08  
  40.2     X      6.58569E+05    6.24947E+05    5.99021E+05    5.73615E+05    5.39342E+05    4.94892E+05    4.41287E+05    3.76541E+05    2.99808E+05    2.23501E+05    1.49069E+05    8.76678E+04    4.46235E+04    1.92912E+04    7.12735E+03    2.25674E+03    6.30742E+02    1.60604E+02    3.51226E+01    5.51328E+00    4.26855E-01    1.27711E-02    8.37663E-05    1.49880E-06    7.77156E-07    8.32667E-07   -1.66533E-07    5.55112E-07   -8.88178E-07   -2.22045E-07    1.77636E-06    3.88578E-07  
  40.2     Y     -5.61471E+02   -4.24212E+02   -2.74579E+02   -1.43480E+02    8.53136E-01    1.59274E+02    3.14911E+02    4.52768E+02    5.46883E+02    5.65196E+02    5.05869E+02    3.87656E+02    2.49903E+02    1.30655E+02    5.36547E+01    1.71980E+01    5.17554E+00    1.95370E+00    6.93154E-01    1.45969E-01    1.28847E-02    3.99229E-04    1.38084E-06   -1.88044E-06    1.73472E-07    3.05311E-07   -3.88578E-07   -1.57513E-06   -6.93889E-08    1.90820E-06   -1.67921E-06   -2.00534E-06  
  40.2     Z      9.09583E+05    8.67265E+05    8.37227E+05    8.09293E+05    7.71629E+05    7.21968E+05    6.60645E+05    5.84139E+05    4.89297E+05    3.89122E+05    2.83387E+05    1.86666E+05    1.09491E+05    5.63060E+04    2.55111E+04    1.02013E+04    3.64660E+03    1.14578E+03    2.82413E+02    4.60102E+01    3.58273E+00    1.07213E-01    7.05824E-04    1.16573E-06   -1.33227E-06    5.55112E-08   -1.44329E-06    2.77556E-07   -4.32987E-06   -9.99201E-07   -9.99201E-07   -7.77156E-07  
  45.2     X      6.64539E+05    6.30859E+05    6.05073E+05    5.79921E+05    5.46002E+05    5.01954E+05    4.48732E+05    3.84265E+05    3.07537E+05    2.30770E+05    1.55263E+05    9.22812E+04    4.75332E+04    2.08032E+04    7.77425E+03    2.48570E+03    7.00072E+02    1.79215E+02    3.93023E+01    6.17427E+00    4.78064E-01    1.43082E-02    9.80327E-05    3.38618E-06    2.22045E-07    5.55112E-07    2.49800E-06    4.44089E-06    6.66134E-07   -1.11022E-06    1.99840E-06    3.33067E-06  
  45.2     Y     -5.28847E+03   -4.91019E+03   -4.58036E+03   -4.27639E+03   -3.89832E+03   -3.43412E+03   -2.90578E+03   -2.31202E+03   -1.66957E+03   -1.09732E+03   -6.08158E+02   -2.68363E+02   -8.30866E+01   -1.25868E+01    8.14832E-01    3.47740E-01    4.04067E-01    7.28503E-01    4.25503E-01    1.04137E-01    9.65794E-03    3.01086E-04   -3.33067E-07   -1.30451E-06    2.91434E-07    1.45717E-07   -8.11851E-07   -2.95597E-06   -9.02056E-08    2.13024E-06   -3.19189E-07   -3.69149E-06  
  45.2     Z      7.57093E+05    7.22789E+05    6.99070E+05    6.77417E+05    6.48223E+05    6.09489E+05    5.61242E+05    5.00368E+05    4.23791E+05    3.41436E+05    2.52639E+05    1.69394E+05    1.01215E+05    5.29911E+04    2.43921E+04    9.88108E+03    3.56609E+03    1.12714E+03    2.78574E+02    4.54198E+01    3.53721E+00    1.05853E-01    6.98094E-04    2.95597E-06    1.13798E-06    1.66533E-06    1.11022E-06    2.06779E-06   -4.24660E-06    7.91034E-07    2.58127E-06    3.67761E-06  
  50.2     X      6.47760E+05    6.15176E+05    5.90394E+05    5.66325E+05    5.33866E+05    4.91657E+05    4.40551E+05    3.78467E+05    3.04271E+05    2.29618E+05    1.55643E+05    9.33442E+04    4.85706E+04    2.14831E+04    8.10869E+03    2.61522E+03    7.41709E+02    1.90829E+02    4.19623E+01    6.59746E+00    5.10886E-01    1.52908E-02    1.02585E-04   -2.99760E-06    1.83187E-06    1.24900E-06    3.24740E-06    5.07927E-06    4.38538E-06   -8.99281E-06    2.44249E-06    7.02216E-06  
  50.2     Y     -7.21987E+03   -6.74754E+03   -6.35409E+03   -5.99195E+03   -5.53195E+03   -4.95430E+03   -4.27973E+03   -3.49749E+03   -2.61836E+03   -1.80094E+03   -1.06902E+03   -5.31925E+02   -2.13832E+02   -6.88357E+01   -2.06209E+01   -6.89776E+00   -1.79529E+00    1.22474E-01    2.85105E-01    8.14021E-02    7.86895E-03    2.50994E-04    6.52950E-06   -3.02536E-06    5.60663E-06    7.49401E-07    5.29438E-06    1.34615E-06   -3.33067E-07   -6.35603E-06    3.01842E-06    5.48173E-06  
  50.2     Z      6.46471E+05    6.17954E+05    5.98766E+05    5.81590E+05    5.58428E+05    5.27479E+05    4.88559E+05    4.38862E+05    3.75399E+05    3.05922E+05    2.29488E+05    1.56219E+05    9.48128E+04    5.03946E+04    2.35081E+04    9.62746E+03    3.50253E+03    1.11252E+03    2.75576E+02    4.49594E+01    3.50169E+00    1.04784E-01    6.80511E-04    2.80331E-06   -1.18516E-05   -4.49640E-06   -1.39611E-05   -8.93730E-06   -5.77316E-06    8.65974E-06   -4.10783E-06   -1.19627E-05  
  55.2     X      6.65661E+05    6.32343E+05    6.07126E+05    5.82712E+05    5.49790E+05    5.06935E+05    4.54967E+05    3.91701E+05    3.15865E+05    2.39250E+05    1.62931E+05    9.82328E+04    5.13894E+04    2.28384E+04    8.65005E+03    2.79505E+03    7.93088E+02    2.03991E+02    4.48420E+01    7.04926E+00    5.45851E-01    1.63367E-02    1.14797E-04    6.27276E-06    1.66533E-07    8.43769E-06    6.05072E-06    3.21965E-06    6.10623E-06    4.94049E-06    4.16334E-06    4.88498E-06  
  55.2     Y     -9.91114E+02   -8.58853E+02   -7.44874E+02   -6.66432E+02   -5.87273E+02   -4.95111E+02   -3.92861E+02   -2.81974E+02   -1.68337E+02   -7.49284E+01   -4.60787E+00    3.24266E+01    3.77389E+01    2.33601E+01    7.29406E+00    5.24494E-02   -3.21823E-01    4.12300E-01    3.40048E-01    8.98189E-02    8.53149E-03    2.77625E-04    8.46545E-06    5.99520E-06    2.73392E-06    7.99361E-06    5.91194E-06    1.95677E-06    8.81240E-06    4.13558E-06    6.63358E-06    5.12090E-06  
  55.2     Z      5.62208E+05    5.38362E+05    5.22988E+05    5.09659E+05    4.91664E+05    4.67313E+05    4.36183E+05    3.95633E+05    3.42605E+05    2.82996E+05    2.15569E+05    1.49071E+05    9.18311E+04    4.94417E+04    2.32911E+04    9.60197E+03    3.50656E+03    1.11581E+03    2.76576E+02    4.51303E+01    3.51510E+00    1.05190E-01    6.94361E-04    1.91513E-06    2.85882E-06   -1.77636E-06   -1.72085E-06    2.66454E-06   -1.16573E-06    5.27356E-07    2.49800E-06    0.00000E+00  
