Data type: dB/dt; UNIT: nT/s
Number of stations: 121
Stations (m): 0.2 5.2 10.2 15.2 20.2 25.2 30.2 35.2 40.2 45.2 50.2 55.2 60.2 65.2 70.2 75.2 80.2 85.2 90.2 95.2 100.2 105.2 110.2 115.2 120.2 125.2 130.2 135.2 140.2 145.2 150.2 155.2 160.2 165.2 170.2 175.2 180.2 185.2 190.2 195.2 200.2 205.2 210.2 215.2 220.2 225.2 230.2 235.2 240.2 245.2 250.2 255.2 260.2 265.2 270.2 275.2 280.2 285.2 290.2 295.2 300.2 305.2 310.2 315.2 320.2 325.2 330.2 335.2 340.2 345.2 350.2 355.2 360.2 365.2 370.2 375.2 380.2 385.2 390.2 395.2 400.2 405.2 410.2 415.2 420.2 425.2 430.2 435.2 440.2 445.2 450.2 455.2 460.2 465.2 470.2 475.2 480.2 485.2 490.2 495.2 500.2 505.2 510.2 515.2 520.2 525.2 530.2 535.2 540.2 545.2 550.2 555.2 560.2 565.2 570.2 575.2 580.2 585.2 590.2 595.2 600.2
Channel times (ms):
   1     0.0010 
   2     0.0014 
   3     0.0020 
   4     0.0028 
   5     0.0040 
   6     0.0057 
   7     0.0080 
   8     0.0113 
   9     0.0160 
   10    0.0226 
   11    0.0320 
   12    0.0453 
   13    0.0640 
   14    0.0905 
   15    0.1280 
   16    0.1810 
   17    0.2560 
   18    0.3620 
   19    0.5120 
   20    0.7241 
   21    1.0240 
   22    1.4482 
   23    2.0480 
   24    2.8963 
   25    4.0960 
   26    5.7926 
   27    8.1920 
   28    11.5850
   29    16.3840
   30    23.1700
   31    32.7680
   32    46.3410
EM data:
Station Component      CH1            CH2            CH3            CH4            CH5            CH6            CH7            CH8            CH9           CH10           CH11           CH12           CH13           CH14           CH15           CH16           CH17           CH18           CH19           CH20           CH21           CH22           CH23           CH24           CH25           CH26           CH27           CH28           CH29           CH30           CH31           CH32      
  0.2      X      5.36210E+03    4.86586E+03    4.35905E+03    3.91070E+03    3.48604E+03    3.14268E+03    2.90338E+03    2.74281E+03    2.62621E+03    2.52527E+03    2.40015E+03    2.23667E+03    2.02641E+03    1.76398E+03    1.45628E+03    1.11785E+03    7.81176E+02    4.86443E+02    2.63682E+02    1.25040E+02    5.10439E+01    1.88726E+01    6.18097E+00    1.87642E+00    4.99521E-01    1.07113E-01    1.38355E-02    8.01109E-04    1.44745E-05    1.24900E-06    1.23512E-06   -6.59195E-08  
  0.2      Y     -2.81566E+03   -2.52123E+03   -2.22471E+03   -1.96687E+03   -1.73049E+03   -1.55047E+03   -1.43476E+03   -1.36150E+03   -1.30522E+03   -1.24993E+03   -1.17799E+03   -1.08409E+03   -9.64783E+02   -8.18483E+02   -6.51215E+02   -4.73637E+02   -3.05578E+02   -1.68557E+02   -7.53516E+01   -2.60891E+01   -6.01498E+00   -5.87810E-01    2.81841E-01    2.52266E-01    1.34713E-01    4.41540E-02    7.02949E-03    4.41107E-04    9.57437E-06    1.39645E-06    9.22873E-07   -4.08527E-07  
  0.2      Z      2.71833E+05    2.45779E+05    2.19143E+05    1.95581E+05    1.73371E+05    1.55720E+05    1.43915E+05    1.36558E+05    1.31599E+05    1.27317E+05    1.21874E+05    1.14689E+05    1.05385E+05    9.36446E+04    7.96299E+04    6.37678E+04    4.72806E+04    3.18892E+04    1.91634E+04    1.02561E+04    4.77906E+03    2.00481E+03    7.40658E+02    2.51057E+02    7.25950E+01    1.60435E+01    2.06623E+00    1.18796E-01    2.16452E-03    8.33274E-06    1.78677E-07    8.87311E-07  
  5.2      X      3.00582E+04    2.71811E+04    2.42408E+04    2.16393E+04    1.91845E+04    1.72264E+04    1.59028E+04    1.50564E+04    1.44606E+04    1.39306E+04    1.32549E+04    1.23666E+04    1.12232E+04    9.79456E+03    8.11520E+03    6.25962E+03    4.40045E+03    2.75654E+03    1.49859E+03    7.05864E+02    2.80229E+02    9.77088E+01    2.92414E+01    8.06065E+00    1.99114E+00    4.10013E-01    5.19924E-02    2.98848E-03    5.37417E-05    7.16441E-07    1.07206E-06   -8.50015E-08  
  5.2      Y      4.73388E+03    4.29450E+03    3.84209E+03    3.43868E+03    3.05304E+03    2.73981E+03    2.52593E+03    2.39213E+03    2.30439E+03    2.23021E+03    2.13521E+03    2.00868E+03    1.84353E+03    1.63333E+03    1.38024E+03    1.09210E+03    7.92819E+02    5.16760E+02    2.94762E+02    1.46483E+02    6.14004E+01    2.23501E+01    6.91102E+00    2.01026E+00    5.55454E-01    1.29333E-01    1.77544E-02    1.05637E-03    2.07733E-05    9.80390E-07    7.11562E-07   -2.61401E-07  
  5.2      Z      2.63176E+05    2.37959E+05    2.12179E+05    1.89373E+05    1.67875E+05    1.50789E+05    1.39362E+05    1.32244E+05    1.27455E+05    1.23327E+05    1.18081E+05    1.11157E+05    1.02191E+05    9.08736E+04    7.73565E+04    6.20416E+04    4.60958E+04    3.11717E+04    1.87905E+04    1.00899E+04    4.71719E+03    1.98467E+03    7.35053E+02    2.49613E+02    7.22570E+01    1.59760E+01    2.05777E+00    1.18312E-01    2.15574E-03    8.26964E-06    4.17201E-07    4.77483E-07  
  10.2     X      5.28937E+04    4.78095E+04    4.26145E+04    3.80196E+04    3.36863E+04    3.02348E+04    2.79092E+04    2.64295E+04    2.53911E+04    2.44644E+04    2.32797E+04    2.17218E+04    1.97179E+04    1.72153E+04    1.42743E+04    1.10236E+04    7.76309E+03    4.87382E+03    2.65583E+03    1.25282E+03    4.96962E+02    1.72459E+02    5.11259E+01    1.39279E+01    3.40585E+00    6.97323E-01    8.81924E-02    5.06424E-03    9.13852E-05    7.91034E-07    1.38778E-06    0.00000E+00  
  10.2     Y      7.93313E+02    7.26243E+02    6.55587E+02    5.91344E+02    5.27254E+02    4.71984E+02    4.33449E+02    4.12105E+02    4.03139E+02    3.98407E+02    3.91511E+02    3.80453E+02    3.63460E+02    3.37899E+02    3.01610E+02    2.53478E+02    1.96282E+02    1.37065E+02    8.42774E+01    4.52987E+01    2.04901E+01    7.91946E+00    2.58037E+00    8.22712E-01    2.64590E-01    6.98765E-02    1.02523E-02    6.25956E-04    1.33647E-05    9.04225E-07    9.16801E-07   -3.35235E-07  
  10.2     Z      2.39410E+05    2.16484E+05    1.93045E+05    1.72311E+05    1.52765E+05    1.37231E+05    1.26849E+05    1.20394E+05    1.16070E+05    1.12359E+05    1.07650E+05    1.01435E+05    9.33819E+04    8.32085E+04    7.10365E+04    5.72053E+04    4.27374E+04    2.91054E+04    1.76948E+04    9.59003E+03    4.52665E+03    1.92138E+03    7.17167E+02    2.44960E+02    7.11597E+01    1.57554E+01    2.03004E+00    1.16721E-01    2.12648E-03    7.78891E-06    4.08527E-07    6.14092E-07  
  15.2     X      5.27819E+04    4.77078E+04    4.25232E+04    3.79375E+04    3.36132E+04    3.01691E+04    2.78487E+04    2.63725E+04    2.53367E+04    2.44123E+04    2.32304E+04    2.16762E+04    1.96771E+04    1.71804E+04    1.42462E+04    1.10030E+04    7.74960E+03    4.86622E+03    2.65229E+03    1.25147E+03    4.96566E+02    1.72363E+02    5.11074E+01    1.39249E+01    3.40545E+00    6.97274E-01    8.81871E-02    5.06397E-03    9.13505E-05    7.63278E-07    1.37390E-06   -6.93889E-09  
  15.2     Y      9.86887E+02    8.97426E+02    8.04480E+02    7.21201E+02    6.40044E+02    5.72321E+02    5.26562E+02    5.01496E+02    4.90130E+02    4.82808E+02    4.72169E+02    4.55996E+02    4.32274E+02    3.98130E+02    3.51576E+02    2.91965E+02    2.23211E+02    1.53792E+02    9.32520E+01    4.94328E+01    2.20584E+01    8.41991E+00    2.70929E+00    8.52324E-01    2.70875E-01    7.10753E-02    1.03997E-02    6.34541E-04    1.33903E-05    7.84095E-07    7.42462E-07   -2.94903E-07  
  15.2     Z      2.32592E+05    2.10329E+05    1.87567E+05    1.67430E+05    1.48446E+05    1.33358E+05    1.23275E+05    1.17011E+05    1.12823E+05    1.09238E+05    1.04691E+05    9.86897E+04    9.09125E+04    8.10831E+04    6.93130E+04    5.59195E+04    4.18781E+04    2.86055E+04    1.74500E+04    9.48978E+03    4.49352E+03    1.91213E+03    7.15051E+02    2.44526E+02    7.10783E+01    1.57411E+01    2.02831E+00    1.16622E-01    2.12458E-03    7.63625E-06    3.40006E-07    2.67147E-07  
  20.2     X      7.99890E+04    7.22923E+04    6.44276E+04    5.74707E+04    5.09097E+04    4.56842E+04    4.21648E+04    3.99270E+04    3.83563E+04    3.69521E+04    3.51562E+04    3.27970E+04    2.97670E+04    2.59887E+04    2.15545E+04    1.66579E+04    1.17459E+04    7.38757E+03    4.03349E+03    1.90525E+03    7.55608E+02    2.61538E+02    7.71282E+01    2.08724E+01    5.07419E+00    1.03544E+00    1.30765E-01    7.50493E-03    1.35322E-04    9.15934E-07    1.38778E-06    8.32667E-08  
  20.2     Y      1.65612E+03    1.49585E+03    1.33159E+03    1.18641E+03    1.04834E+03    9.37192E+02    8.64224E+02    8.23518E+02    8.01779E+02    7.84592E+02    7.60672E+02    7.26793E+02    6.80160E+02    6.17196E+02    5.36412E+02    4.38321E+02    3.29898E+02    2.23837E+02    1.33511E+02    6.94855E+01    3.03877E+01    1.13808E+01    3.58551E+00    1.08704E+00    3.27476E-01    8.25956E-02    1.18521E-02    7.17490E-04    1.51216E-05    8.88178E-07    4.30211E-07   -2.32453E-07  
  20.2     Z      2.41413E+05    2.18312E+05    1.94692E+05    1.73795E+05    1.54089E+05    1.38424E+05    1.27954E+05    1.21447E+05    1.17099E+05    1.13377E+05    1.08656E+05    1.02427E+05    9.43564E+04    8.41581E+04    7.19468E+04    5.80491E+04    4.34728E+04    2.96863E+04    1.80933E+04    9.82194E+03    4.63711E+03    1.96560E+03    7.31771E+02    2.49245E+02    7.22566E+01    1.59842E+01    2.05907E+00    1.18387E-01    2.15683E-03    7.93116E-06    4.78784E-07    4.57967E-07  
  25.2     X      9.04000E+04    8.17061E+04    7.28219E+04    6.49622E+04    5.75478E+04    5.16406E+04    4.76616E+04    4.51332E+04    4.33620E+04    4.17816E+04    3.97621E+04    3.71113E+04    3.37092E+04    2.94692E+04    2.44932E+04    1.89919E+04    1.34571E+04    8.51988E+03    4.69001E+03    2.23520E+03    8.94282E+02    3.11776E+02    9.24281E+01    2.50942E+01    6.11174E+00    1.24799E+00    1.57608E-01    9.04481E-03    1.63834E-04    1.05471E-06    1.50574E-06    3.33067E-07  
  25.2     Y     -8.53941E+02   -7.79968E+02   -7.03683E+02   -6.34690E+02   -5.68792E+02   -5.15060E+02   -4.74946E+02   -4.42786E+02   -4.13883E+02   -3.87061E+02   -3.55501E+02   -3.16881E+02   -2.70717E+02   -2.18176E+02   -1.63207E+02   -1.10321E+02   -6.50034E+01   -3.12577E+01   -1.02784E+01   -7.65454E-01    1.58205E+00    1.11716E+00    4.86291E-01    2.34634E-01    1.18339E-01    3.97802E-02    6.44330E-03    4.07004E-04    9.00668E-06    4.64906E-07   -1.38778E-08   -5.58581E-07  
  25.2     Z      2.06080E+05    1.86395E+05    1.66264E+05    1.48452E+05    1.31655E+05    1.18304E+05    1.09390E+05    1.03874E+05    1.00225E+05    9.71338E+04    9.32253E+04    8.80628E+04    8.13611E+04    7.28666E+04    6.26483E+04    5.09384E+04    3.85353E+04    2.66473E+04    1.64821E+04    9.08867E+03    4.35932E+03    1.87428E+03    7.06342E+02    2.42736E+02    7.07423E+01    1.56818E+01    2.02111E+00    1.16211E-01    2.11707E-03    7.85483E-06    9.95731E-07    3.53884E-07  
  30.2     X      9.92685E+04    8.97241E+04    7.99699E+04    7.13395E+04    6.31969E+04    5.67086E+04    5.23376E+04    4.95602E+04    4.76148E+04    4.58795E+04    4.36626E+04    4.07538E+04    3.70221E+04    3.23732E+04    2.69186E+04    2.08879E+04    1.48169E+04    9.39465E+03    5.18049E+03    2.47308E+03    9.90755E+02    3.45637E+02    1.02462E+02    2.78024E+01    6.76647E+00    1.38097E+00    1.74354E-01    1.00049E-02    1.81771E-04    1.36002E-06    2.02616E-06    3.88578E-07  
  30.2     Y     -1.52132E+03   -1.38624E+03   -1.24669E+03   -1.12092E+03   -1.00056E+03   -9.02332E+02   -8.30956E+02   -7.77586E+02   -7.32746E+02   -6.91390E+02   -6.41486E+02   -5.79165E+02   -5.03154E+02   -4.14346E+02   -3.18267E+02   -2.22099E+02   -1.36202E+02   -6.98062E+01   -2.70772E+01   -6.42941E+00    2.70398E-01    9.39461E-01    4.94711E-01    2.47958E-01    1.23562E-01    4.10934E-02    6.62220E-03    4.17167E-04    9.44882E-06    3.85976E-07   -1.06685E-07   -7.70434E-07  
  30.2     Z      1.98586E+05    1.79631E+05    1.60247E+05    1.43093E+05    1.26917E+05    1.14060E+05    1.05479E+05    1.00178E+05    9.66880E+04    9.37454E+04    9.00286E+04    8.51168E+04    7.87339E+04    7.06313E+04    6.08628E+04    4.96332E+04    3.76874E+04    2.61746E+04    1.62663E+04    9.01002E+03    4.33843E+03    1.87056E+03    7.06221E+02    2.42924E+02    7.08262E+01    1.57025E+01    2.02385E+00    1.16369E-01    2.12024E-03    8.04565E-06    1.47408E-06    6.05635E-07  
  35.2     X      1.09052E+05    9.85749E+04    8.78667E+04    7.83904E+04    6.94471E+04    6.23177E+04    5.75130E+04    5.44601E+04    5.23241E+04    5.04214E+04    4.79927E+04    4.48079E+04    4.07245E+04    3.56399E+04    2.96746E+04    2.30746E+04    1.64180E+04    1.04520E+04    5.79147E+03    2.77844E+03    1.11800E+03    3.91224E+02    1.16160E+02    3.15309E+01    7.67287E+00    1.56568E+00    1.97647E-01    1.13406E-02    2.06071E-04    1.26288E-06    1.72085E-06    1.13798E-06  
  35.2     Y     -3.01630E+02   -2.90008E+02   -2.75831E+02   -2.60080E+02   -2.42163E+02   -2.23839E+02   -2.04996E+02   -1.84875E+02   -1.64707E+02   -1.47050E+02   -1.27948E+02   -1.05652E+02   -8.01176E+01   -5.27585E+01   -2.66431E+01   -4.93797E+00    9.49641E+00    1.57919E+01    1.53263E+01    1.09931E+01    5.86937E+00    2.35503E+00    7.43146E-01    2.72753E-01    1.21827E-01    3.99638E-02    6.44895E-03    4.07053E-04    9.44383E-06    6.52256E-07   -2.26381E-07   -1.09721E-06  
  35.2     Z      1.91380E+05    1.73135E+05    1.54472E+05    1.37955E+05    1.22379E+05    1.10000E+05    1.01746E+05    9.66641E+04    9.33428E+04    9.05636E+04    8.70583E+04    8.24204E+04    7.63810E+04    6.86925E+04    5.93865E+04    4.86323E+04    3.71152E+04    2.59250E+04    1.62067E+04    9.02452E+03    4.36320E+03    1.88570E+03    7.12529E+02    2.45046E+02    7.14129E+01    1.58286E+01    2.03994E+00    1.17293E-01    2.13643E-03    8.05898E-06    7.31514E-07    7.92674E-08  
  40.2     X      1.27440E+05    1.15216E+05    1.02719E+05    9.16563E+04    8.12107E+04    7.28787E+04    6.72618E+04    6.36960E+04    6.12093E+04    5.90020E+04    5.61878E+04    5.24982E+04    4.77673E+04    4.18736E+04    3.49513E+04    2.72748E+04    1.95016E+04    1.24927E+04    6.97265E+03    3.36981E+03    1.36496E+03    4.79916E+02    1.42881E+02    3.88199E+01    9.44683E+00    1.92728E+00    2.43247E-01    1.39554E-02    2.53408E-04    6.10623E-07    1.83187E-06    3.33067E-07  
  40.2     Y     -2.07827E+01   -3.99824E+01   -5.64669E+01   -6.70390E+01   -7.29383E+01   -7.23380E+01   -6.43520E+01   -5.05872E+01   -3.50418E+01   -2.19711E+01   -8.86608E+00    5.69069E+00    2.15277E+01    3.70935E+01    4.96264E+01    5.63510E+01    5.53034E+01    4.68655E+01    3.37775E+01    2.03619E+01    9.72749E+00    3.65984E+00    1.09181E+00    3.53852E-01    1.38947E-01    4.32211E-02    6.85192E-03    4.28817E-04    8.04218E-06    1.92207E-06   -1.65146E-06   -2.02616E-06  
  40.2     Z      1.74093E+05    1.57521E+05    1.40568E+05    1.25564E+05    1.11416E+05    1.00178E+05    9.26977E+04    8.81166E+04    8.51609E+04    8.27198E+04    7.96486E+04    7.55760E+04    7.02530E+04    6.34417E+04    5.51417E+04    4.54659E+04    3.49898E+04    2.46775E+04    1.55891E+04    8.76955E+03    4.27926E+03    1.86287E+03    7.07629E+02    2.44152E+02    7.12716E+01    1.58070E+01    2.03744E+00    1.17151E-01    2.13052E-03    6.88338E-06   -8.32667E-07   -7.77156E-07  
  45.2     X      1.28416E+05    1.16121E+05    1.03548E+05    9.24147E+04    8.19004E+04    7.35122E+04    6.78600E+04    6.42810E+04    6.18016E+04    5.96150E+04    5.68311E+04    5.31783E+04    4.84877E+04    4.26311E+04    3.57293E+04    2.80385E+04    2.01969E+04    1.30598E+04    7.37113E+03    3.60561E+03    1.47839E+03    5.25443E+02    1.57864E+02    4.31832E+01    1.05555E+01    2.15758E+00    2.72428E-01    1.56332E-02    2.85438E-04    0.00000E+00    2.10942E-06    3.10862E-06  
  45.2     Y     -9.27078E+02   -8.62212E+02   -7.91803E+02   -7.24681E+02   -6.56457E+02   -5.95983E+02   -5.47180E+02   -5.07549E+02   -4.74504E+02   -4.46400E+02   -4.14188E+02   -3.74401E+02   -3.25908E+02   -2.69189E+02   -2.07658E+02   -1.45765E+02   -9.00614E+01   -4.65866E+01   -1.83700E+01   -4.74000E+00   -3.93996E-01    9.67426E-02    2.00108E-02    5.89647E-02    6.68420E-02    2.85568E-02    5.00813E-03    3.21757E-04    5.89806E-06    2.01922E-06   -2.01228E-07   -3.64986E-06  
  45.2     Z      1.44450E+05    1.30729E+05    1.16692E+05    1.04271E+05    9.25631E+04    8.32745E+04    7.71127E+04    7.33763E+04    7.10222E+04    6.91257E+04    6.67517E+04    6.35897E+04    5.94269E+04    5.40486E+04    4.74122E+04    3.95524E+04    3.08761E+04    2.21397E+04    1.42433E+04    8.16043E+03    4.05206E+03    1.79016E+03    6.88137E+02    2.39377E+02    7.02046E+01    1.55985E+01    2.01146E+00    1.15665E-01    2.10373E-03    8.59035E-06    2.55351E-06    3.81639E-06  
  50.2     X      1.25026E+05    1.13069E+05    1.00841E+05    9.00126E+04    7.97856E+04    7.16278E+04    6.61349E+04    6.26661E+04    6.02781E+04    5.81845E+04    5.55221E+04    5.20254E+04    4.75278E+04    4.18989E+04    3.52434E+04    2.77928E+04    2.01483E+04    1.31330E+04    7.48332E+03    3.69841E+03    1.53250E+03    5.49865E+02    1.66555E+02    4.58467E+01    1.12538E+01    2.30461E+00    2.91122E-01    1.67068E-02    3.08864E-04   -7.79932E-06    2.63678E-06    7.10543E-06  
  50.2     Y     -1.28821E+03   -1.19056E+03   -1.08700E+03   -9.90552E+02   -8.93996E+02   -8.09836E+02   -7.44328E+02   -6.94221E+02   -6.54798E+02   -6.21730E+02   -5.83048E+02   -5.34233E+02   -4.73383E+02   -4.00196E+02   -3.18044E+02   -2.32049E+02   -1.51139E+02   -8.48416E+01   -3.91078E+01   -1.45609E+01   -4.40114E+00   -1.37611E+00   -4.52531E-01   -8.05537E-02    3.03216E-02    2.07473E-02    4.00462E-03    2.67737E-04    4.62130E-06   -6.32827E-06    3.07393E-06    5.50948E-06  
  50.2     Z      1.22996E+05    1.11330E+05    9.93948E+04    8.88373E+04    7.88926E+04    7.10142E+04    6.58076E+04    6.26826E+04    6.07613E+04    5.92537E+04    5.73761E+04    5.48625E+04    5.15266E+04    4.71711E+04    4.17256E+04    3.51722E+04    2.78008E+04    2.02202E+04    1.32114E+04    7.68698E+03    3.87342E+03    1.73262E+03    6.72706E+02    2.35617E+02    6.93696E+01    1.54359E+01    1.99118E+00    1.14493E-01    2.08092E-03    1.62370E-05   -4.13558E-06   -1.20182E-05  
  55.2     X      1.28363E+05    1.16101E+05    1.03559E+05    9.24510E+04    8.19589E+04    7.35887E+04    6.79547E+04    6.44030E+04    6.19691E+04    5.98447E+04    5.71455E+04    5.35980E+04    4.90294E+04    4.33017E+04    3.65130E+04    2.88876E+04    2.10284E+04    1.37740E+04    7.89112E+03    3.92025E+03    1.63155E+03    5.87082E+02    1.78064E+02    4.90198E+01    1.20284E+01    2.46261E+00    3.11054E-01    1.78479E-02    3.31180E-04    5.82867E-06    4.16334E-06    4.77396E-06  
  55.2     Y     -6.70608E+01   -8.87820E+01   -1.06731E+02   -1.17533E+02   -1.22011E+02   -1.18274E+02   -1.07144E+02   -9.23990E+01   -7.92507E+01   -7.07976E+01   -6.36489E+01   -5.56222E+01   -4.60778E+01   -3.52207E+01   -2.39276E+01   -1.32559E+01   -4.50938E+00    1.29979E+00    3.77891E+00    3.40382E+00    1.68621E+00    3.55940E-01   -5.41981E-02    1.40229E-03    4.62176E-02    2.37162E-02    4.37692E-03    2.89713E-04    1.43080E-05    4.26048E-06    6.77236E-06    5.13478E-06  
  55.2     Z      1.06543E+05    9.64568E+04    8.61397E+04    7.70173E+04    6.84319E+04    6.16445E+04    5.71833E+04    5.45464E+04    5.29852E+04    5.18115E+04    5.03612E+04    4.84015E+04    4.57632E+04    4.22564E+04    3.77766E+04    3.22500E+04    2.58621E+04    1.91039E+04    1.26785E+04    7.48211E+03    3.81539E+03    1.72136E+03    6.72065E+02    2.36085E+02    6.95980E+01    1.54933E+01    1.99879E+00    1.14943E-01    2.09358E-03    8.21565E-06    2.58127E-06    8.32667E-08  
